65710.1277019763,65710.1282014721,65710.1287009678,65710.1292004635,65710.1296999593,65710.130199455,65710.1306989507,65710.1311984465,65710.1316979422,65710.1321974379,65710.1326969337,65710.1331964294,65710.1336959251,65710.1341954208,65710.1346949166,65710.1351944123,65710.135693908,65710.1361934038,65710.1366928995,65710.1371923952,65710.137691891,65710.1381913867,65710.1386908824,65710.1391903781,65710.1396898739,65710.1401893696,65710.1406888653,65710.1411883611,65710.1416878568,65710.1421873525,65710.1426868483,65710.143186344,65710.1436858397,65710.1441853355,65710.1446848312,65710.1451843269,65710.1456838226,65710.1461833184,65710.1466828141,65710.1471823098,65710.1476818056,65710.1481813013,65710.148680797,65710.1491802928,65710.1496797885,65710.1501792842,65710.15067878,65710.1511782757,65710.1516777714,65710.1521772672,65710.1526767629,65710.1531762586,65710.1536757543,65710.1541752501,65710.1546747458,65710.1551742415,65710.1556737373,65710.156173233,65710.1566727287,65710.1571722245,65710.1576717202,65710.1581712159,65710.1586707117,65710.1591702074,65710.1596697031,65710.1601691988,65710.1606686946,65710.1611681903,65710.161667686,65710.1621671818,65710.1626666775,65710.1631661732,65710.163665669,65710.1641651647,65710.1646646604,65710.1651641561,65710.1656636519,65710.1661631476,65710.1666626433,65710.1671621391,65710.1676616348,65710.1681611305,65710.1686606263,65710.169160122,65710.1696596177,65710.1701591135,65710.1706586092,65710.1711581049,65710.1716576007,65710.1721570964,65710.1726565921,65710.1731560878,65710.1736555836,65710.1741550793,65710.174654575,65710.1751540708,65710.1756535665,65710.1761530622,65710.176652558,65710.1771520537,65710.1776515494,65710.1781510452,65710.1786505409,65710.1791500366,65710.1796495324,65710.1801490281,65710.1806485238,65710.1811480195,65710.1816475153,65710.182147011,65710.1826465067,65710.1831460025,65710.1836454982,65710.1841449939,65710.1846444897,65710.1851439854,65710.1856434811,65710.1861429768,65710.1866424726,65710.1871419683,65710.187641464,65710.1881409598,65710.1886404555,65710.1891399512,65710.189639447,65710.1901389427,65710.1906384384,65710.1911379341,65710.1916374299,65710.1921369256,65710.1926364213,65710.1931359171,65710.1936354128,65710.1941349085,65710.1946344043,65710.1951339,65710.1956333957,65710.1961328915,65710.1966323872,65710.1971318829,65710.1976313787,65710.1981308744,65710.1986303701,65710.1991298658,65710.1996293616,65710.2001288573,65710.200628353,65710.2011278488,65710.2016273445,65710.2021268402,65710.202626336,65710.2031258317,65710.2036253274,65710.2041248232,65710.2046243189,65710.2051238146,65710.2056233104,65710.2061228061,65710.2066223018,65710.2071217975,65710.2076212933,65710.208120789,65710.2086202847,65710.2091197805,65710.2096192762,65710.2101187719,65710.2106182677,65710.2111177634,65710.2116172591,65710.2121167548,65710.2126162506,65710.2131157463,65710.213615242,65710.2141147378,65710.2146142335,65710.2151137292,65710.215613225,65710.2161127207,65710.2166122164,65710.2171117122,65710.2176112079,65710.2181107036,65710.2186101993,65710.2191096951,65710.2196091908,65710.2201086865,65710.2206081823,65710.221107678,65710.2216071737,65710.2221066695,65710.2226061652,65710.2231056609,65710.2236051567,65710.2241046524,65710.2246041481,65710.2251036439,65710.2256031396,65710.2261026353,65710.226602131,65710.2271016268,65710.2276011225,65710.2281006182,65710.228600114,65710.2290996097,65710.2295991054,65710.2300986012,65710.2305980969,65710.2310975926,65710.2315970884,65710.2320965841,65710.2325960798,65710.2330955755,65710.2335950713,65710.234094567,65710.2345940627,65710.2350935585,65710.2355930542,65710.2360925499,65710.2365920457,65710.2370915414,65710.2375910371,65710.2380905328,65710.2385900286,65710.2390895243,65710.23958902,65710.2400885158,65710.2405880115,65710.2410875072,65710.241587003,65710.2420864987,65710.2425859944,65710.2430854902,65710.2435849859,65710.2440844816,65710.2445839774,65710.2450834731,65710.2455829688,65710.2460824645,65710.2465819603,65710.247081456,65710.2475809517,65710.2480804475,65710.2485799432,65710.2490794389,65710.2495789347,65710.2500784304,65710.2505779261,65710.2510774219,65710.2515769176,65710.2520764133,65710.252575909,65710.2530754048,65710.2535749005,65710.2540743962,65710.254573892,65710.2550733877,65710.2555728834,65710.2560723792,65710.2565718749,65710.2570713706,65710.2575708663,65710.2580703621,65710.2585698578,65710.2590693535,65710.2595688493,65710.260068345,65710.2605678407,65710.2610673365,65710.2615668322,65710.2620663279,65710.2625658237,65710.2630653194,65710.2635648151,65710.2640643108,65710.2645638066,65710.2650633023,65710.265562798,65710.2660622938,65710.2665617895,65710.2670612852,65710.267560781,65710.2680602767,65710.2685597724,65710.2690592682,65710.2695587639,65710.2700582596,65710.2705577554,65710.2710572511,65710.2715567468,65710.2720562425,65710.2725557383,65710.273055234,65710.2735547297,65710.2740542255,65710.2745537212,65710.2750532169,65710.2755527127,65710.2760522084,65710.2765517041,65710.2770511999,65710.2775506956,65710.2780501913,65710.278549687,65710.2790491828,65710.2795486785,65710.2800481742,65710.28054767,65710.2810471657,65710.2815466614,65710.2820461572,65710.2825456529,65710.2830451486,65710.2835446443,65710.2840441401,65710.2845436358,65710.2850431315,65710.2855426273,65710.286042123,65710.2865416187,65710.2870411145,65710.2875406102,65710.2880401059,65710.2885396017,65710.2890390974,65710.2895385931,65710.2900380889,65710.2905375846,65710.2910370803,65710.291536576,65710.2920360718,65710.2925355675,65710.2930350632,65710.293534559,65710.2940340547,65710.2945335504,65710.2950330462,65710.2955325419,65710.2960320376,65710.2965315334,65710.2970310291,65710.2975305248,65710.2980300206,65710.2985295163,65710.299029012,65710.2995285077,65710.3000280035,65710.3005274992,65710.3010269949,65710.3015264907,65710.3020259864,65710.3025254821,65710.3030249779,65710.3035244736,65710.3040239693,65710.304523465,65710.3050229608,65710.3055224565,65710.3060219522,65710.306521448,65710.3070209437,65710.3075204394,65710.3080199352,65710.3085194309,65710.3090189266,65710.3095184223,65710.3100179181,65710.3105174138,65710.3110169095,65710.3115164053,65710.312015901,65710.3125153967,65710.3130148925,65710.3135143882,65710.3140138839,65710.3145133797,65710.3150128754,65710.3155123711,65710.3160118669,65710.3165113626,65710.3170108583,65710.317510354,65710.3180098498,65710.3185093455,65710.3190088412,65710.319508337,65710.3200078327,65710.3205073284,65710.3210068242,65710.3215063199,65710.3220058156,65710.3225053114,65710.3230048071,65710.3235043028,65710.3240037986,65710.3245032943,65710.32500279,65710.3255022857,65710.3260017815,65710.3265012772,65710.3270007729,65710.3275002687,65710.3279997644,65710.3284992601,65710.3289987559,65710.3294982516,65710.3299977473,65710.330497243,65710.3309967388,65710.3314962345,65710.3319957302,65710.332495226,65710.3329947217,65710.3334942174,65710.3339937132,65710.3344932089,65710.3349927046,65710.3354922004,65710.3359916961,65710.3364911918,65710.3369906875,65710.3374901833,65710.337989679,65710.3384891747,65710.3389886705,65710.3394881662,65710.3399876619,65710.3404871577,65710.3409866534,65710.3414861491,65710.3419856449,65710.3424851406,65710.3429846363,65710.3434841321,65710.3439836278,65710.3444831235,65710.3449826192,65710.345482115,65710.3459816107,65710.3464811064,65710.3469806022,65710.3474800979,65710.3479795936,65710.3484790894,65710.3489785851,65710.3494780808,65710.3499775766,65710.3504770723,65710.350976568,65710.3514760637,65710.3519755595,65710.3524750552,65710.3529745509,65710.3534740467,65710.3539735424,65710.3544730381,65710.3549725339,65710.3554720296,65710.3559715253,65710.356471021,65710.3569705168,65710.3574700125,65710.3579695082,65710.358469004,65710.3589684997,65710.3594679954,65710.3599674912,65710.3604669869,65710.3609664826,65710.3614659784,65710.3619654741,65710.3624649698,65710.3629644656,65710.3634639613,65710.363963457,65710.3644629527,65710.3649624485,65710.3654619442,65710.3659614399,65710.3664609357,65710.3669604314,65710.3674599271,65710.3679594229,65710.3684589186,65710.3689584143,65710.3694579101,65710.3699574058,65710.3704569015,65710.3709563973,65710.371455893,65710.3719553887,65710.3724548844,65710.3729543802,65710.3734538759,65710.3739533716,65710.3744528674,65710.3749523631,65710.3754518588,65710.3759513546,65710.3764508503,65710.376950346,65710.3774498417,65710.3779493375,65710.3784488332,65710.3789483289,65710.3794478247,65710.3799473204,65710.3804468161,65710.3809463119,65710.3814458076,65710.3819453033,65710.382444799,65710.3829442948,65710.3834437905,65710.3839432862,65710.384442782,65710.3849422777,65710.3854417734,65710.3859412692,65710.3864407649,65710.3869402606,65710.3874397564,65710.3879392521,65710.3884387478,65710.3889382436,65710.3894377393,65710.389937235,65710.3904367307,65710.3909362265,65710.3914357222,65710.3919352179,65710.3924347137,65710.3929342094,65710.3934337051,65710.3939332009,65710.3944326966,65710.3949321923,65710.3954316881,65710.3959311838,65710.3964306795,65710.3969301753,65710.397429671,65710.3979291667,65710.3984286624,65710.3989281582,65710.3994276539,65710.3999271496,65710.4004266454,65710.4009261411,65710.4014256368,65710.4019251326,65710.4024246283,65710.402924124,65710.4034236197,65710.4039231155,65710.4044226112,65710.4049221069,65710.4054216027,65710.4059210984,65710.4064205941,65710.4069200899,65710.4074195856,65710.4079190813,65710.4084185771,65710.4089180728,65710.4094175685,65710.4099170642,65710.41041656,65710.4109160557,65710.4114155514,65710.4119150472,65710.4124145429,65710.4129140386,65710.4134135344,65710.4139130301,65710.4144125258,65710.4149120216,65710.4154115173,65710.415911013,65710.4164105088,65710.4169100045,65710.4174095002,65710.4179089959,65710.4184084917,65710.4189079874,65710.4194074831,65710.4199069789,65710.4204064746,65710.4209059703,65710.4214054661,65710.4219049618,65710.4224044575,65710.4229039533,65710.423403449,65710.4239029447,65710.4244024404,65710.4249019362,65710.4254014319,65710.4259009276,65710.4264004234,65710.4268999191,65710.4273994148,65710.4278989106,65710.4283984063,65710.428897902,65710.4293973977,65710.4298968935,65710.4303963892,65710.4308958849,65710.4313953807,65710.4318948764,65710.4323943721,65710.4328938679,65710.4333933636,65710.4338928593,65710.4343923551,65710.4348918508,65710.4353913465,65710.4358908422,65710.436390338,65710.4368898337,65710.4373893294,65710.4378888252,65710.4383883209,65710.4388878166,65710.4393873124,65710.4398868081,65710.4403863038,65710.4408857996,65710.4413852953,65710.441884791,65710.4423842868,65710.4428837825,65710.4433832782,65710.443882774,65710.4443822697,65710.4448817654,65710.4453812611,65710.4458807569,65710.4463802526,65710.4468797483,65710.4473792441,65710.4478787398,65710.4483782355,65710.4488777313,65710.449377227,65710.4498767227,65710.4503762184,65710.4508757142,65710.4513752099,65710.4518747056,65710.4523742014,65710.4528736971,65710.4533731928,65710.4538726886,65710.4543721843,65710.45487168,65710.4553711757,65710.4558706715,65710.4563701672,65710.4568696629,65710.4573691587,65710.4578686544,65710.4583681501,65710.4588676459,65710.4593671416,65710.4598666373,65710.4603661331,65710.4608656288,65710.4613651245,65710.4618646203,65710.462364116,65710.4628636117,65710.4633631074,65710.4638626032,65710.4643620989,65710.4648615946,65710.4653610904,65710.4658605861,65710.4663600818,65710.4668595776,65710.4673590733,65710.467858569,65710.4683580648,65710.4688575605,65710.4693570562,65710.469856552,65710.4703560477,65710.4708555434,65710.4713550391,65710.4718545349,65710.4723540306,65710.4728535263,65710.4733530221,65710.4738525178,65710.4743520135,65710.4748515093,65710.475351005,65710.4758505007,65710.4763499964,65710.4768494922,65710.4773489879,65710.4778484836,65710.4783479794,65710.4788474751,65710.4793469708,65710.4798464666,65710.4803459623,65710.480845458,65710.4813449538,65710.4818444495,65710.4823439452,65710.4828434409,65710.4833429367,65710.4838424324,65710.4843419281,65710.4848414239,65710.4853409196,65710.4858404153,65710.4863399111,65710.4868394068,65710.4873389025,65710.4878383983,65710.488337894,65710.4888373897,65710.4893368855,65710.4898363812,65710.4903358769,65710.4908353726,65710.4913348684,65710.4918343641,65710.4923338598,65710.4928333556,65710.4933328513,65710.493832347,65710.4943318428,65710.4948313385,65710.4953308342,65710.4958303299,65710.4963298257,65710.4968293214,65710.4973288171,65710.4978283129,65710.4983278086,65710.4988273043,65710.4993268001,65710.4998262958,65710.5003257915,65710.5008252873,65710.501324783,65710.5018242787,65710.5023237744,65710.5028232702,65710.5033227659,65710.5038222616,65710.5043217574,65710.5048212531,65710.5053207488,65710.5058202446,65710.5063197403,65710.506819236,65710.5073187318,65710.5078182275,65710.5083177232,65710.5088172189,65710.5093167147,65710.5098162104,65710.5103157061,65710.5108152019,65710.5113146976,65710.5118141933,65710.5123136891,65710.5128131848,65710.5133126805,65710.5138121763,65710.514311672,65710.5148111677,65710.5153106635,65710.5158101592,65710.5163096549,65710.5168091506,65710.5173086464,65710.5178081421,65710.5183076378,65710.5188071336,65710.5193066293,65710.519806125,65710.5203056208,65710.5208051165,65710.5213046122,65710.5218041079,65710.5223036037,65710.5228030994,65710.5233025951,65710.5238020909,65710.5243015866,65710.5248010823,65710.5253005781,65710.5258000738,65710.5262995695,65710.5267990653,65710.527298561,65710.5277980567,65710.5282975524,65710.5287970482,65710.5292965439,65710.5297960396,65710.5302955354,65710.5307950311,65710.5312945268,65710.5317940226,65710.5322935183,65710.532793014,65710.5332925098,65710.5337920055,65710.5342915012,65710.534790997,65710.5352904927,65710.5357899884,65710.5362894841,65710.5367889799,65710.5372884756,65710.5377879713,65710.5382874671,65710.5387869628,65710.5392864585,65710.5397859543,65710.54028545,65710.5407849457,65710.5412844415,65710.5417839372,65710.5422834329,65710.5427829286,65710.5432824244,65710.5437819201,65710.5442814158,65710.5447809116,65710.5452804073,65710.545779903,65710.5462793988,65710.5467788945,65710.5472783902,65710.5477778859,65710.5482773817,65710.5487768774,65710.5492763731,65710.5497758689,65710.5502753646,65710.5507748603,65710.5512743561,65710.5517738518,65710.5522733475,65710.5527728433,65710.553272339,65710.5537718347,65710.5542713304,65710.5547708262,65710.5552703219,65710.5557698176,65710.5562693134,65710.5567688091,65710.5572683048,65710.5577678006,65710.5582672963,65710.558766792,65710.5592662878,65710.5597657835,65710.5602652792,65710.560764775,65710.5612642707,65710.5617637664,65710.5622632622,65710.5627627579,65710.5632622536,65710.5637617493,65710.5642612451,65710.5647607408,65710.5652602365,65710.5657597323,65710.566259228,65710.5667587237,65710.5672582195,65710.5677577152,65710.5682572109,65710.5687567066,65710.5692562024,65710.5697556981,65710.5702551938,65710.5707546896,65710.5712541853,65710.571753681,65710.5722531768,65710.5727526725,65710.5732521682,65710.5737516639,65710.5742511597,65710.5747506554,65710.5752501511,65710.5757496469,65710.5762491426,65710.5767486383,65710.5772481341,65710.5777476298,65710.5782471255,65710.5787466213,65710.579246117,65710.5797456127,65710.5802451085,65710.5807446042,65710.5812440999,65710.5817435956,65710.5822430914,65710.5827425871,65710.5832420828,65710.5837415786,65710.5842410743,65710.58474057,65710.5852400658,65710.5857395615,65710.5862390572,65710.586738553,65710.5872380487,65710.5877375444,65710.5882370402,65710.5887365359,65710.5892360316,65710.5897355273,65710.5902350231,65710.5907345188,65710.5912340145,65710.5917335103,65710.592233006,65710.5927325017,65710.5932319975,65710.5937314932,65710.5942309889,65710.5947304846,65710.5952299804,65710.5957294761,65710.5962289718,65710.5967284676,65710.5972279633,65710.597727459,65710.5982269548,65710.5987264505,65710.5992259462,65710.599725442,65710.6002249377,65710.6007244334,65710.6012239291,65710.6017234249,65710.6022229206,65710.6027224163,65710.6032219121,65710.6037214078,65710.6042209035,65710.6047203993,65710.605219895,65710.6057193907,65710.6062188865,65710.6067183822,65710.6072178779,65710.6077173737,65710.6082168694,65710.6087163651,65710.6092158608,65710.6097153566,65710.6102148523,65710.610714348,65710.6112138438,65710.6117133395,65710.6122128352,65710.612712331,65710.6132118267,65710.6137113224,65710.6142108182,65710.6147103139,65710.6152098096,65710.6157093053,65710.6162088011,65710.6167082968,65710.6172077925,65710.6177072883,65710.618206784,65710.6187062797,65710.6192057755,65710.6197052712,65710.6202047669,65710.6207042626,65710.6212037584,65710.6217032541,65710.6222027498,65710.6227022456,65710.6232017413,65710.623701237,65710.6242007328,65710.6247002285,65710.6251997242,65710.62569922,65710.6261987157,65710.6266982114,65710.6271977071,65710.6276972029,65710.6281966986,65710.6286961943,65710.6291956901,65710.6296951858,65710.6301946815,65710.6306941773,65710.631193673,65710.6316931687,65710.6321926645,65710.6326921602,65710.6331916559,65710.6336911517,65710.6341906474,65710.6346901431,65710.6351896389,65710.6356891346,65710.6361886303,65710.636688126,65710.6371876218,65710.6376871175,65710.6381866132,65710.638686109,65710.6391856047,65710.6396851004,65710.6401845962,65710.6406840919,65710.6411835876,65710.6416830833,65710.6421825791,65710.6426820748,65710.6431815705,65710.6436810663,65710.644180562,65710.6446800577,65710.6451795535,65710.6456790492,65710.6461785449,65710.6466780406,65710.6471775364,65710.6476770321,65710.6481765278,65710.6486760236,65710.6491755193,65710.649675015,65710.6501745108,65710.6506740065,65710.6511735022,65710.651672998,65710.6521724937,65710.6526719894,65710.6531714852,65710.6536709809,65710.6541704766,65710.6546699723,65710.6551694681,65710.6556689638,65710.6561684595,65710.6566679553,65710.657167451,65710.6576669467,65710.6581664425,65710.6586659382,65710.6591654339,65710.6596649297,65710.6601644254,65710.6606639211,65710.6611634169,65710.6616629126,65710.6621624083,65710.662661904,65710.6631613998,65710.6636608955,65710.6641603912,65710.664659887,65710.6651593827,65710.6656588784,65710.6661583742,65710.6666578699,65710.6671573656,65710.6676568613,65710.6681563571,65710.6686558528,65710.6691553485,65710.6696548443,65710.67015434,65710.6706538357,65710.6711533315,65710.6716528272,65710.6721523229,65710.6726518186,65710.6731513144,65710.6736508101,65710.6741503058,65710.6746498016,65710.6751492973,65710.675648793,65710.6761482888,65710.6766477845,65710.6771472802,65710.677646776,65710.6781462717,65710.6786457674,65710.6791452632,65710.6796447589,65710.6801442546,65710.6806437504,65710.6811432461,65710.6816427418,65710.6821422375,65710.6826417333,65710.683141229,65710.6836407247,65710.6841402205,65710.6846397162,65710.6851392119,65710.6856387077,65710.6861382034,65710.6866376991,65710.6871371949,65710.6876366906,65710.6881361863,65710.688635682,65710.6891351778,65710.6896346735,65710.6901341692,65710.690633665,65710.6911331607,65710.6916326564,65710.6921321522,65710.6926316479,65710.6931311436,65710.6936306393,65710.6941301351,65710.6946296308,65710.6951291265,65710.6956286223,65710.696128118,65710.6966276137,65710.6971271095,65710.6976266052,65710.6981261009,65710.6986255967,65710.6991250924,65710.6996245881,65710.7001240838,65710.7006235796,65710.7011230753,65710.701622571,65710.7021220668,65710.7026215625,65710.7031210582,65710.703620554,65710.7041200497,65710.7046195454,65710.7051190412,65710.7056185369,65710.7061180326,65710.7066175284,65710.7071170241,65710.7076165198,65710.7081160155,65710.7086155113,65710.709115007,65710.7096145027,65710.7101139985,65710.7106134942,65710.7111129899,65710.7116124857,65710.7121119814,65710.7126114771,65710.7131109729,65710.7136104686,65710.7141099643,65710.71460946,65710.7151089558,65710.7156084515,65710.7161079472,65710.716607443,65710.7171069387,65710.7176064344,65710.7181059302,65710.7186054259,65710.7191049216,65710.7196044173,65710.7201039131,65710.7206034088,65710.7211029045,65710.7216024003,65710.722101896,65710.7226013917,65710.7231008875,65710.7236003832,65710.7240998789,65710.7245993747,65710.7250988704,65710.7255983661,65710.7260978619,65710.7265973576,65710.7270968533,65710.727596349,65710.7280958448,65710.7285953405,65710.7290948362,65710.729594332,65710.7300938277,65710.7305933234,65710.7310928192,65710.7315923149,65710.7320918106,65710.7325913064,65710.7330908021,65710.7335902978,65710.7340897936,65710.7345892893,65710.735088785,65710.7355882807,65710.7360877765,65710.7365872722,65710.7370867679,65710.7375862637,65710.7380857594,65710.7385852551,65710.7390847509,65710.7395842466,65710.7400837423,65710.740583238,65710.7410827338,65710.7415822295,65710.7420817252,65710.742581221,65710.7430807167,65710.7435802124,65710.7440797082,65710.7445792039,65710.7450786996,65710.7455781953,65710.7460776911,65710.7465771868,65710.7470766825,65710.7475761783,65710.748075674,65710.7485751697,65710.7490746655,65710.7495741612,65710.7500736569,65710.7505731527,65710.7510726484,65710.7515721441,65710.7520716399,65710.7525711356,65710.7530706313,65710.7535701271,65710.7540696228,65710.7545691185,65710.7550686142,65710.75556811,65710.7560676057,65710.7565671014,65710.7570665972,65710.7575660929,65710.7580655886,65710.7585650844,65710.7590645801,65710.7595640758,65710.7600635715,65710.7605630673,65710.761062563,65710.7615620587,65710.7620615545,65710.7625610502,65710.7630605459,65710.7635600417,65710.7640595374,65710.7645590331,65710.7650585289,65710.7655580246,65710.7660575203,65710.766557016,65710.7670565118,65710.7675560075,65710.7680555032,65710.768554999,65710.7690544947,65710.7695539904,65710.7700534862,65710.7705529819,65710.7710524776,65710.7715519734,65710.7720514691,65710.7725509648,65710.7730504605,65710.7735499563,65710.774049452,65710.7745489477,65710.7750484435,65710.7755479392,65710.7760474349,65710.7765469307,65710.7770464264,65710.7775459221,65710.7780454179,65710.7785449136,65710.7790444093,65710.7795439051,65710.7800434008,65710.7805428965,65710.7810423922,65710.781541888,65710.7820413837,65710.7825408794,65710.7830403752,65710.7835398709,65710.7840393666,65710.7845388624,65710.7850383581,65710.7855378538,65710.7860373495,65710.7865368453,65710.787036341,65710.7875358367,65710.7880353325,65710.7885348282,65710.7890343239,65710.7895338197,65710.7900333154,65710.7905328111,65710.7910323068,65710.7915318026,65710.7920312983,65710.792530794,65710.7930302898,65710.7935297855,65710.7940292812,65710.794528777,65710.7950282727,65710.7955277684,65710.7960272642,65710.7965267599,65710.7970262556,65710.7975257514,65710.7980252471,65710.7985247428,65710.7990242386,65710.7995237343,65710.80002323,65710.8005227257,65710.8010222215,65710.8015217172,65710.8020212129,65710.8025207087,65710.8030202044,65710.8035197001,65710.8040191959,65710.8045186916,65710.8050181873,65710.8055176831,65710.8060171788,65710.8065166745,65710.8070161702,65710.807515666,65710.8080151617,65710.8085146574,65710.8090141532,65710.8095136489,65710.8100131446,65710.8105126404,65710.8110121361,65710.8115116318,65710.8120111275,65710.8125106233,65710.813010119,65710.8135096147,65710.8140091105,65710.8145086062,65710.8150081019,65710.8155075977,65710.8160070934,65710.8165065891,65710.8170060849,65710.8175055806,65710.8180050763,65710.818504572,65710.8190040678,65710.8195035635,65710.8200030592,65710.820502555,65710.8210020507,65710.8215015464,65710.8220010422,65710.8225005379,65710.8230000336,65710.8234995294,65710.8239990251,65710.8244985208,65710.8249980166,65710.8254975123,65710.825997008,65710.8264965037,65710.8269959995,65710.8274954952,65710.8279949909,65710.8284944867,65710.8289939824,65710.8294934781,65710.8299929739,65710.8304924696,65710.8309919653,65710.8314914611,65710.8319909568,65710.8324904525,65710.8329899482,65710.833489444,65710.8339889397,65710.8344884354,65710.8349879312,65710.8354874269,65710.8359869226,65710.8364864184,65710.8369859141,65710.8374854098,65710.8379849055,65710.8384844013,65710.838983897,65710.8394833927,65710.8399828885,65710.8404823842,65710.8409818799,65710.8414813757,65710.8419808714,65710.8424803671,65710.8429798629,65710.8434793586,65710.8439788543,65710.8444783501,65710.8449778458,65710.8454773415,65710.8459768372,65710.846476333,65710.8469758287,65710.8474753244,65710.8479748202,65710.8484743159,65710.8489738116,65710.8494733074,65710.8499728031,65710.8504722988,65710.8509717946,65710.8514712903,65710.851970786,65710.8524702818,65710.8529697775,65710.8534692732,65710.8539687689,65710.8544682647,65710.8549677604,65710.8554672561,65710.8559667519,65710.8564662476,65710.8569657433,65710.8574652391,65710.8579647348,65710.8584642305,65710.8589637262,65710.859463222,65710.8599627177,65710.8604622134,65710.8609617092,65710.8614612049,65710.8619607006,65710.8624601964,65710.8629596921,65710.8634591878,65710.8639586835,65710.8644581793,65710.864957675,65710.8654571707,65710.8659566665,65710.8664561622,65710.8669556579,65710.8674551537,65710.8679546494,65710.8684541451,65710.8689536409,65710.8694531366,65710.8699526323,65710.8704521281,65710.8709516238,65710.8714511195,65710.8719506153,65710.872450111,65710.8729496067,65710.8734491024,65710.8739485982,65710.8744480939,65710.8749475896,65710.8754470854,65710.8759465811,65710.8764460768,65710.8769455726,65710.8774450683,65710.877944564,65710.8784440598,65710.8789435555,65710.8794430512,65710.8799425469,65710.8804420427,65710.8809415384,65710.8814410341,65710.8819405299,65710.8824400256,65710.8829395213,65710.8834390171,65710.8839385128,65710.8844380085,65710.8849375042,65710.885437,65710.8859364957,65710.8864359914,65710.8869354872,65710.8874349829,65710.8879344786,65710.8884339744,65710.8889334701,65710.8894329658,65710.8899324616,65710.8904319573,65710.890931453,65710.8914309487,65710.8919304445,65710.8924299402,65710.8929294359,65710.8934289317,65710.8939284274,65710.8944279231,65710.8949274189,65710.8954269146,65710.8959264103,65710.8964259061,65710.8969254018,65710.8974248975,65710.8979243933,65710.898423889,65710.8989233847,65710.8994228804,65710.8999223762,65710.9004218719,65710.9009213676,65710.9014208634,65710.9019203591,65710.9024198548,65710.9029193506,65710.9034188463,65710.903918342,65710.9044178378,65710.9049173335,65710.9054168292,65710.9059163249,65710.9064158207,65710.9069153164,65710.9074148121,65710.9079143079,65710.9084138036,65710.9089132993,65710.9094127951,65710.9099122908,65710.9104117865,65710.9109112822,65710.911410778,65710.9119102737,65710.9124097694,65710.9129092652,65710.9134087609,65710.9139082566,65710.9144077524,65710.9149072481,65710.9154067438,65710.9159062396,65710.9164057353,65710.916905231,65710.9174047268,65710.9179042225,65710.9184037182,65710.9189032139,65710.9194027097,65710.9199022054,65710.9204017011,65710.9209011969,65710.9214006926,65710.9219001883,65710.9223996841,65710.9228991798,65710.9233986755,65710.9238981713,65710.924397667,65710.9248971627,65710.9253966585,65710.9258961542,65710.9263956499,65710.9268951456,65710.9273946414,65710.9278941371,65710.9283936328,65710.9288931286,65710.9293926243,65710.92989212,65710.9303916158,65710.9308911115,65710.9313906072,65710.9318901029,65710.9323895987,65710.9328890944,65710.9333885901,65710.9338880859,65710.9343875816,65710.9348870773,65710.9353865731,65710.9358860688,65710.9363855645,65710.9368850602,65710.937384556,65710.9378840517,65710.9383835474,65710.9388830432,65710.9393825389,65710.9398820346,65710.9403815304,65710.9408810261,65710.9413805218,65710.9418800176,65710.9423795133,65710.942879009,65710.9433785048,65710.9438780005,65710.9443774962,65710.9448769919,65710.9453764877,65710.9458759834,65710.9463754791,65710.9468749749,65710.9473744706,65710.9478739663,65710.9483734621,65710.9488729578,65710.9493724535,65710.9498719493,65710.950371445,65710.9508709407,65710.9513704365,65710.9518699322,65710.9523694279,65710.9528689236,65710.9533684194,65710.9538679151,65710.9543674108,65710.9548669066,65710.9553664023,65710.955865898,65710.9563653938,65710.9568648895,65710.9573643852,65710.9578638809,65710.9583633767,65710.9588628724,65710.9593623681,65710.9598618639,65710.9603613596,65710.9608608553,65710.9613603511,65710.9618598468,65710.9623593425,65710.9628588383,65710.963358334,65710.9638578297,65710.9643573254,65710.9648568212,65710.9653563169,65710.9658558126,65710.9663553084,65710.9668548041,65710.9673542998,65710.9678537956,65710.9683532913,65710.968852787,65710.9693522828,65710.9698517785,65710.9703512742,65710.97085077,65710.9713502657,65710.9718497614,65710.9723492571,65710.9728487529,65710.9733482486,65710.9738477443,65710.9743472401,65710.9748467358,65710.9753462315,65710.9758457273,65710.976345223,65710.9768447187,65710.9773442145,65710.9778437102,65710.9783432059,65710.9788427016,65710.9793421974,65710.9798416931,65710.9803411888,65710.9808406846,65710.9813401803,65710.981839676,65710.9823391718,65710.9828386675,65710.9833381632,65710.9838376589,65710.9843371547,65710.9848366504,65710.9853361461,65710.9858356419,65710.9863351376,65710.9868346333,65710.9873341291,65710.9878336248,65710.9883331205,65710.9888326163,65710.989332112,65710.9898316077,65710.9903311035,65710.9908305992,65710.9913300949,65710.9918295906,65710.9923290864,65710.9928285821,65710.9933280778,65710.9938275736,65710.9943270693,65710.994826565,65710.9953260608,65710.9958255565,65710.9963250522,65710.996824548,65710.9973240437,65710.9978235394,65710.9983230351,65710.9988225309,65710.9993220266,65710.9998215223,65711.0003210181,65711.0008205138,65711.0013200095,65711.0018195053,65711.002319001,65711.0028184967,65711.0033179925,65711.0038174882,65711.0043169839,65711.0048164796,65711.0053159754,65711.0058154711,65711.0063149668,65711.0068144626,65711.0073139583,65711.007813454,65711.0083129498,65711.0088124455,65711.0093119412,65711.0098114369,65711.0103109327,65711.0108104284,65711.0113099241,65711.0118094199,65711.0123089156,65711.0128084113,65711.0133079071,65711.0138074028,65711.0143068985,65711.0148063943,65711.01530589,65711.0158053857,65711.0163048815,65711.0168043772,65711.0173038729,65711.0178033686,65711.0183028644,65711.0188023601,65711.0193018558,65711.0198013516,65711.0203008473,65711.020800343,65711.0212998388,65711.0217993345,65711.0222988302,65711.022798326,65711.0232978217,65711.0237973174,65711.0242968131,65711.0247963089,65711.0252958046,65711.0257953003,65711.0262947961,65711.0267942918,65711.0272937875,65711.0277932833,65711.028292779,65711.0287922747,65711.0292917705,65711.0297912662,65711.0302907619,65711.0307902576,65711.0312897534,65711.0317892491,65711.0322887448,65711.0327882406,65711.0332877363,65711.033787232,65711.0342867278,65711.0347862235,65711.0352857192,65711.035785215,65711.0362847107,65711.0367842064,65711.0372837021,65711.0377831979,65711.0382826936,65711.0387821893,65711.0392816851,65711.0397811808,65711.0402806765,65711.0407801723,65711.041279668,65711.0417791637,65711.0422786595,65711.0427781552,65711.0432776509,65711.0437771467,65711.0442766424,65711.0447761381,65711.0452756338,65711.0457751296,65711.0462746253,65711.046774121,65711.0472736168,65711.0477731125,65711.0482726082,65711.048772104,65711.0492715997,65711.0497710954,65711.0502705911,65711.0507700869,65711.0512695826,65711.0517690783,65711.0522685741,65711.0527680698,65711.0532675655,65711.0537670613,65711.054266557,65711.0547660527,65711.0552655484,65711.0557650442,65711.0562645399,65711.0567640356,65711.0572635314,65711.0577630271,65711.0582625228,65711.0587620186,65711.0592615143,65711.05976101,65711.0602605058,65711.0607600015,65711.0612594972,65711.061758993,65711.0622584887,65711.0627579844,65711.0632574801,65711.0637569759,65711.0642564716,65711.0647559673,65711.0652554631,65711.0657549588,65711.0662544545,65711.0667539503,65711.067253446,65711.0677529417,65711.0682524375,65711.0687519332,65711.0692514289,65711.0697509247,65711.0702504204,65711.0707499161,65711.0712494118,65711.0717489076,65711.0722484033,65711.072747899,65711.0732473948,65711.0737468905,65711.0742463862,65711.074745882,65711.0752453777,65711.0757448734,65711.0762443691,65711.0767438649,65711.0772433606,65711.0777428563,65711.0782423521,65711.0787418478,65711.0792413435,65711.0797408393,65711.080240335,65711.0807398307,65711.0812393265,65711.0817388222,65711.0822383179,65711.0827378136,65711.0832373094,65711.0837368051,65711.0842363008,65711.0847357966,65711.0852352923,65711.085734788,65711.0862342838,65711.0867337795,65711.0872332752,65711.087732771,65711.0882322667,65711.0887317624,65711.0892312582,65711.0897307539,65711.0902302496,65711.0907297453,65711.0912292411,65711.0917287368,65711.0922282325,65711.0927277283,65711.093227224,65711.0937267197,65711.0942262155,65711.0947257112,65711.0952252069,65711.0957247027,65711.0962241984,65711.0967236941,65711.0972231898,65711.0977226856,65711.0982221813,65711.098721677,65711.0992211728,65711.0997206685,65711.1002201642,65711.10071966,65711.1012191557,65711.1017186514,65711.1022181471,65711.1027176429,65711.1032171386,65711.1037166343,65711.1042161301,65711.1047156258,65711.1052151215,65711.1057146173,65711.106214113,65711.1067136087,65711.1072131045,65711.1077126002,65711.1082120959,65711.1087115917,65711.1092110874,65711.1097105831,65711.1102100788,65711.1107095746,65711.1112090703,65711.111708566,65711.1122080618,65711.1127075575,65711.1132070532,65711.113706549,65711.1142060447,65711.1147055404,65711.1152050362,65711.1157045319,65711.1162040276,65711.1167035234,65711.1172030191,65711.1177025148,65711.1182020105,65711.1187015063,65711.119201002,65711.1197004977,65711.1201999935,65711.1206994892,65711.1211989849,65711.1216984807,65711.1221979764,65711.1226974721,65711.1231969678,65711.1236964636,65711.1241959593,65711.124695455,65711.1251949508,65711.1256944465,65711.1261939422,65711.126693438,65711.1271929337,65711.1276924294,65711.1281919251,65711.1286914209,65711.1291909166,65711.1296904123,65711.1301899081,65711.1306894038,65711.1311888995,65711.1316883953,65711.132187891,65711.1326873867,65711.1331868825,65711.1336863782,65711.1341858739,65711.1346853697,65711.1351848654,65711.1356843611,65711.1361838568,65711.1366833526,65711.1371828483,65711.137682344,65711.1381818398,65711.1386813355,65711.1391808312,65711.139680327,65711.1401798227,65711.1406793184,65711.1411788142,65711.1416783099,65711.1421778056,65711.1426773014,65711.1431767971,65711.1436762928,65711.1441757885,65711.1446752843,65711.14517478,65711.1456742757,65711.1461737715,65711.1466732672,65711.1471727629,65711.1476722587,65711.1481717544,65711.1486712501,65711.1491707458,65711.1496702416,65711.1501697373,65711.150669233,65711.1511687288,65711.1516682245,65711.1521677202,65711.152667216,65711.1531667117,65711.1536662074,65711.1541657032,65711.1546651989,65711.1551646946,65711.1556641903,65711.1561636861,65711.1566631818,65711.1571626775,65711.1576621733,65711.158161669,65711.1586611647,65711.1591606605,65711.1596601562,65711.1601596519,65711.1606591477,65711.1611586434,65711.1616581391,65711.1621576349,65711.1626571306,65711.1631566263,65711.163656122,65711.1641556178,65711.1646551135,65711.1651546092,65711.165654105,65711.1661536007,65711.1666530964,65711.1671525922,65711.1676520879,65711.1681515836,65711.1686510794,65711.1691505751,65711.1696500708,65711.1701495665,65711.1706490623,65711.171148558,65711.1716480537,65711.1721475495,65711.1726470452,65711.1731465409,65711.1736460367,65711.1741455324,65711.1746450281,65711.1751445238,65711.1756440196,65711.1761435153,65711.176643011,65711.1771425068,65711.1776420025,65711.1781414982,65711.178640994,65711.1791404897,65711.1796399854,65711.1801394812,65711.1806389769,65711.1811384726,65711.1816379683,65711.1821374641,65711.1826369598,65711.1831364555,65711.1836359513,65711.184135447,65711.1846349427,65711.1851344385,65711.1856339342,65711.1861334299,65711.1866329257,65711.1871324214,65711.1876319171,65711.1881314129,65711.1886309086,65711.1891304043,65711.1896299001,65711.1901293958,65711.1906288915,65711.1911283872,65711.191627883,65711.1921273787,65711.1926268744,65711.1931263702,65711.1936258659,65711.1941253616,65711.1946248574,65711.1951243531,65711.1956238488,65711.1961233445,65711.1966228403,65711.197122336,65711.1976218317,65711.1981213275,65711.1986208232,65711.1991203189,65711.1996198147,65711.2001193104,65711.2006188061,65711.2011183018,65711.2016177976,65711.2021172933,65711.202616789,65711.2031162848,65711.2036157805,65711.2041152762,65711.204614772,65711.2051142677,65711.2056137634,65711.2061132592,65711.2066127549,65711.2071122506,65711.2076117464,65711.2081112421,65711.2086107378,65711.2091102335,65711.2096097293,65711.210109225,65711.2106087207,65711.2111082165,65711.2116077122,65711.2121072079,65711.2126067037,65711.2131061994,65711.2136056951,65711.2141051909,65711.2146046866,65711.2151041823,65711.2156036781,65711.2161031738,65711.2166026695,65711.2171021652,65711.217601661,65711.2181011567,65711.2186006524,65711.2191001482,65711.2195996439,65711.2200991396,65711.2205986354,65711.2210981311,65711.2215976268,65711.2220971225,65711.2225966183,65711.223096114,65711.2235956097,65711.2240951055,65711.2245946012,65711.2250940969,65711.2255935927,65711.2260930884,65711.2265925841,65711.2270920799,65711.2275915756,65711.2280910713,65711.228590567,65711.2290900628,65711.2295895585,65711.2300890542,65711.23058855,65711.2310880457,65711.2315875414,65711.2320870372,65711.2325865329,65711.2330860286,65711.2335855244,65711.2340850201,65711.2345845158,65711.2350840116,65711.2355835073,65711.236083003,65711.2365824987,65711.2370819945,65711.2375814902,65711.2380809859,65711.2385804817,65711.2390799774,65711.2395794731,65711.2400789689,65711.2405784646,65711.2410779603,65711.2415774561,65711.2420769518,65711.2425764475,65711.2430759432,65711.243575439,65711.2440749347,65711.2445744304,65711.2450739262,65711.2455734219,65711.2460729176,65711.2465724134,65711.2470719091,65711.2475714048,65711.2480709005,65711.2485703963,65711.249069892,65711.2495693877,65711.2500688835,65711.2505683792,65711.2510678749,65711.2515673707,65711.2520668664,65711.2525663621,65711.2530658579,65711.2535653536,65711.2540648493,65711.254564345,65711.2550638408,65711.2555633365,65711.2560628322,65711.256562328,65711.2570618237,65711.2575613194,65711.2580608152,65711.2585603109,65711.2590598066,65711.2595593024,65711.2600587981,65711.2605582938,65711.2610577896,65711.2615572853,65711.262056781,65711.2625562767,65711.2630557725,65711.2635552682,65711.2640547639,65711.2645542597,65711.2650537554,65711.2655532511,65711.2660527469,65711.2665522426,65711.2670517383,65711.2675512341,65711.2680507298,65711.2685502255,65711.2690497212,65711.269549217,65711.2700487127,65711.2705482084,65711.2710477042,65711.2715471999,65711.2720466956,65711.2725461914,65711.2730456871,65711.2735451828,65711.2740446785,65711.2745441743,65711.27504367,65711.2755431657,65711.2760426615,65711.2765421572,65711.2770416529,65711.2775411487,65711.2780406444,65711.2785401401,65711.2790396359,65711.2795391316,65711.2800386273,65711.2805381231,65711.2810376188,65711.2815371145,65711.2820366102,65711.282536106,65711.2830356017,65711.2835350974,65711.2840345932,65711.2845340889,65711.2850335846,65711.2855330804,65711.2860325761,65711.2865320718,65711.2870315676,65711.2875310633,65711.288030559,65711.2885300547,65711.2890295505,65711.2895290462,65711.2900285419,65711.2905280377,65711.2910275334,65711.2915270291,65711.2920265249,65711.2925260206,65711.2930255163,65711.293525012,65711.2940245078,65711.2945240035,65711.2950234992,65711.295522995,65711.2960224907,65711.2965219864,65711.2970214822,65711.2975209779,65711.2980204736,65711.2985199694,65711.2990194651,65711.2995189608,65711.3000184566,65711.3005179523,65711.301017448,65711.3015169437,65711.3020164395,65711.3025159352,65711.3030154309,65711.3035149267,65711.3040144224,65711.3045139181,65711.3050134139,65711.3055129096,65711.3060124053,65711.3065119011,65711.3070113968,65711.3075108925,65711.3080103883,65711.308509884,65711.3090093797,65711.3095088754,65711.3100083712,65711.3105078669,65711.3110073626,65711.3115068584,65711.3120063541,65711.3125058498,65711.3130053456,65711.3135048413,65711.314004337,65711.3145038327,65711.3150033285,65711.3155028242,65711.3160023199,65711.3165018157,65711.3170013114,65711.3175008071,65711.3180003029,65711.3184997986,65711.3189992943,65711.31949879,65711.3199982858,65711.3204977815,65711.3209972772,65711.321496773,65711.3219962687,65711.3224957644,65711.3229952602,65711.3234947559,65711.3239942516,65711.3244937474,65711.3249932431,65711.3254927388,65711.3259922346,65711.3264917303,65711.326991226,65711.3274907217,65711.3279902175,65711.3284897132,65711.3289892089,65711.3294887047,65711.3299882004,65711.3304876961,65711.3309871919,65711.3314866876,65711.3319861833,65711.3324856791,65711.3329851748,65711.3334846705,65711.3339841663,65711.334483662,65711.3349831577,65711.3354826534,65711.3359821492,65711.3364816449,65711.3369811406,65711.3374806364,65711.3379801321,65711.3384796278,65711.3389791236,65711.3394786193,65711.339978115,65711.3404776107,65711.3409771065,65711.3414766022,65711.3419760979,65711.3424755937,65711.3429750894,65711.3434745851,65711.3439740809,65711.3444735766,65711.3449730723,65711.3454725681,65711.3459720638,65711.3464715595,65711.3469710552,65711.347470551,65711.3479700467,65711.3484695424,65711.3489690382,65711.3494685339,65711.3499680296,65711.3504675254,65711.3509670211,65711.3514665168,65711.3519660126,65711.3524655083,65711.352965004,65711.3534644998,65711.3539639955,65711.3544634912,65711.3549629869,65711.3554624827,65711.3559619784,65711.3564614741,65711.3569609699,65711.3574604656,65711.3579599613,65711.3584594571,65711.3589589528,65711.3594584485,65711.3599579443,65711.36045744,65711.3609569357,65711.3614564314,65711.3619559272,65711.3624554229,65711.3629549186,65711.3634544144,65711.3639539101,65711.3644534058,65711.3649529016,65711.3654523973,65711.365951893,65711.3664513887,65711.3669508845,65711.3674503802,65711.3679498759,65711.3684493717,65711.3689488674,65711.3694483631,65711.3699478589,65711.3704473546,65711.3709468503,65711.3714463461,65711.3719458418,65711.3724453375,65711.3729448332,65711.373444329,65711.3739438247,65711.3744433204,65711.3749428162,65711.3754423119,65711.3759418076,65711.3764413034,65711.3769407991,65711.3774402948,65711.3779397906,65711.3784392863,65711.378938782,65711.3794382778,65711.3799377735,65711.3804372692,65711.380936765,65711.3814362607,65711.3819357564,65711.3824352521,65711.3829347479,65711.3834342436,65711.3839337393,65711.3844332351,65711.3849327308,65711.3854322265,65711.3859317223,65711.386431218,65711.3869307137,65711.3874302094,65711.3879297052,65711.3884292009,65711.3889286966,65711.3894281924,65711.3899276881,65711.3904271838,65711.3909266796,65711.3914261753,65711.391925671,65711.3924251667,65711.3929246625,65711.3934241582,65711.3939236539,65711.3944231497,65711.3949226454,65711.3954221411,65711.3959216369,65711.3964211326,65711.3969206283,65711.3974201241,65711.3979196198,65711.3984191155,65711.3989186113,65711.399418107,65711.3999176027,65711.4004170984,65711.4009165942,65711.4014160899,65711.4019155856,65711.4024150814,65711.4029145771,65711.4034140728,65711.4039135686,65711.4044130643,65711.40491256,65711.4054120558,65711.4059115515,65711.4064110472,65711.406910543,65711.4074100387,65711.4079095344,65711.4084090301,65711.4089085259,65711.4094080216,65711.4099075173,65711.4104070131,65711.4109065088,65711.4114060045,65711.4119055003,65711.412404996,65711.4129044917,65711.4134039874,65711.4139034832,65711.4144029789,65711.4149024746,65711.4154019704,65711.4159014661,65711.4164009618,65711.4169004576,65711.4173999533,65711.417899449,65711.4183989448,65711.4188984405,65711.4193979362,65711.4198974319,65711.4203969277,65711.4208964234,65711.4213959191,65711.4218954149,65711.4223949106,65711.4228944063,65711.4233939021,65711.4238933978,65711.4243928935,65711.4248923893,65711.425391885,65711.4258913807,65711.4263908765,65711.4268903722,65711.4273898679,65711.4278893636,65711.4283888594,65711.4288883551,65711.4293878508,65711.4298873466,65711.4303868423,65711.430886338,65711.4313858338,65711.4318853295,65711.4323848252,65711.432884321,65711.4333838167,65711.4338833124,65711.4343828081,65711.4348823039,65711.4353817996,65711.4358812953,65711.4363807911,65711.4368802868,65711.4373797825,65711.4378792783,65711.438378774,65711.4388782697,65711.4393777654,65711.4398772612,65711.4403767569,65711.4408762526,65711.4413757484,65711.4418752441,65711.4423747398,65711.4428742356,65711.4433737313,65711.443873227,65711.4443727228,65711.4448722185,65711.4453717142,65711.4458712099,65711.4463707057,65711.4468702014,65711.4473696971,65711.4478691929,65711.4483686886,65711.4488681843,65711.4493676801,65711.4498671758,65711.4503666715,65711.4508661673,65711.451365663,65711.4518651587,65711.4523646545,65711.4528641502,65711.4533636459,65711.4538631416,65711.4543626374,65711.4548621331,65711.4553616288,65711.4558611246,65711.4563606203,65711.456860116,65711.4573596118,65711.4578591075,65711.4583586032,65711.458858099,65711.4593575947,65711.4598570904,65711.4603565861,65711.4608560819,65711.4613555776,65711.4618550733,65711.4623545691,65711.4628540648,65711.4633535605,65711.4638530563,65711.464352552,65711.4648520477,65711.4653515434,65711.4658510392,65711.4663505349,65711.4668500306,65711.4673495264,65711.4678490221,65711.4683485178,65711.4688480136,65711.4693475093,65711.469847005,65711.4703465008,65711.4708459965,65711.4713454922,65711.471844988,65711.4723444837,65711.4728439794,65711.4733434751,65711.4738429709,65711.4743424666,65711.4748419623,65711.4753414581,65711.4758409538,65711.4763404495,65711.4768399453,65711.477339441,65711.4778389367,65711.4783384325,65711.4788379282,65711.4793374239,65711.4798369197,65711.4803364154,65711.4808359111,65711.4813354068,65711.4818349026,65711.4823343983,65711.482833894,65711.4833333898,65711.4838328855,65711.4843323812,65711.484831877,65711.4853313727,65711.4858308684,65711.4863303641,65711.4868298599,65711.4873293556,65711.4878288513,65711.4883283471,65711.4888278428,65711.4893273385,65711.4898268343,65711.49032633,65711.4908258257,65711.4913253214,65711.4918248172,65711.4923243129,65711.4928238086,65711.4933233044,65711.4938228001,65711.4943222958,65711.4948217916,65711.4953212873,65711.495820783,65711.4963202788,65711.4968197745,65711.4973192702,65711.497818766,65711.4983182617,65711.4988177574,65711.4993172532,65711.4998167489,65711.5003162446,65711.5008157403,65711.5013152361,65711.5018147318,65711.5023142275,65711.5028137233,65711.503313219,65711.5038127147,65711.5043122105,65711.5048117062,65711.5053112019,65711.5058106977,65711.5063101934,65711.5068096891,65711.5073091848,65711.5078086806,65711.5083081763,65711.508807672,65711.5093071678,65711.5098066635,65711.5103061592,65711.510805655,65711.5113051507,65711.5118046464,65711.5123041421,65711.5128036379,65711.5133031336,65711.5138026293,65711.5143021251,65711.5148016208,65711.5153011165,65711.5158006123,65711.516300108,65711.5167996037,65711.5172990995,65711.5177985952,65711.5182980909,65711.5187975866,65711.5192970824,65711.5197965781,65711.5202960738,65711.5207955696,65711.5212950653,65711.521794561,65711.5222940568,65711.5227935525,65711.5232930482,65711.523792544,65711.5242920397,65711.5247915354,65711.5252910312,65711.5257905269,65711.5262900226,65711.5267895183,65711.5272890141,65711.5277885098,65711.5282880055,65711.5287875013,65711.529286997,65711.5297864927,65711.5302859885,65711.5307854842,65711.5312849799,65711.5317844757,65711.5322839714,65711.5327834671,65711.5332829628,65711.5337824586,65711.5342819543,65711.53478145,65711.5352809458,65711.5357804415,65711.5362799372,65711.536779433,65711.5372789287,65711.5377784244,65711.5382779201,65711.5387774159,65711.5392769116,65711.5397764073,65711.5402759031,65711.5407753988,65711.5412748945,65711.5417743903,65711.542273886,65711.5427733817,65711.5432728775,65711.5437723732,65711.5442718689,65711.5447713647,65711.5452708604,65711.5457703561,65711.5462698518,65711.5467693476,65711.5472688433,65711.547768339,65711.5482678348,65711.5487673305,65711.5492668262,65711.549766322,65711.5502658177,65711.5507653134,65711.5512648092,65711.5517643049,65711.5522638006,65711.5527632963,65711.5532627921,65711.5537622878,65711.5542617835,65711.5547612793,65711.555260775,65711.5557602707,65711.5562597665,65711.5567592622,65711.5572587579,65711.5577582536,65711.5582577494,65711.5587572451,65711.5592567408,65711.5597562366,65711.5602557323,65711.560755228,65711.5612547238,65711.5617542195,65711.5622537152,65711.562753211,65711.5632527067,65711.5637522024,65711.5642516981,65711.5647511939,65711.5652506896,65711.5657501853,65711.5662496811,65711.5667491768,65711.5672486725,65711.5677481683,65711.568247664,65711.5687471597,65711.5692466555,65711.5697461512,65711.5702456469,65711.5707451427,65711.5712446384,65711.5717441341,65711.5722436298,65711.5727431256,65711.5732426213,65711.573742117,65711.5742416128,65711.5747411085,65711.5752406042,65711.5757401,65711.5762395957,65711.5767390914,65711.5772385872,65711.5777380829,65711.5782375786,65711.5787370743,65711.5792365701,65711.5797360658,65711.5802355615,65711.5807350573,65711.581234553,65711.5817340487,65711.5822335445,65711.5827330402,65711.5832325359,65711.5837320316,65711.5842315274,65711.5847310231,65711.5852305188,65711.5857300146,65711.5862295103,65711.586729006,65711.5872285018,65711.5877279975,65711.5882274932,65711.588726989,65711.5892264847,65711.5897259804,65711.5902254762,65711.5907249719,65711.5912244676,65711.5917239633,65711.5922234591,65711.5927229548,65711.5932224505,65711.5937219463,65711.594221442,65711.5947209377,65711.5952204335,65711.5957199292,65711.5962194249,65711.5967189207,65711.5972184164,65711.5977179121,65711.5982174079,65711.5987169036,65711.5992163993,65711.599715895,65711.6002153908,65711.6007148865,65711.6012143822,65711.601713878,65711.6022133737,65711.6027128694,65711.6032123652,65711.6037118609,65711.6042113566,65711.6047108523,65711.6052103481,65711.6057098438,65711.6062093395,65711.6067088353,65711.607208331,65711.6077078267,65711.6082073225,65711.6087068182,65711.6092063139,65711.6097058096,65711.6102053054,65711.6107048011,65711.6112042968,65711.6117037926,65711.6122032883,65711.612702784,65711.6132022798,65711.6137017755,65711.6142012712,65711.614700767,65711.6152002627,65711.6156997584,65711.6161992542,65711.6166987499,65711.6171982456,65711.6176977414,65711.6181972371,65711.6186967328,65711.6191962285,65711.6196957243,65711.62019522,65711.6206947157,65711.6211942115,65711.6216937072,65711.6221932029,65711.6226926987,65711.6231921944,65711.6236916901,65711.6241911859,65711.6246906816,65711.6251901773,65711.625689673,65711.6261891688,65711.6266886645,65711.6271881602,65711.627687656,65711.6281871517,65711.6286866474,65711.6291861432,65711.6296856389,65711.6301851346,65711.6306846303,65711.6311841261,65711.6316836218,65711.6321831175,65711.6326826133,65711.633182109,65711.6336816047,65711.6341811005,65711.6346805962,65711.6351800919,65711.6356795877,65711.6361790834,65711.6366785791,65711.6371780748,65711.6376775706,65711.6381770663,65711.638676562,65711.6391760578,65711.6396755535,65711.6401750492,65711.640674545,65711.6411740407,65711.6416735364,65711.6421730322,65711.6426725279,65711.6431720236,65711.6436715194,65711.6441710151,65711.6446705108,65711.6451700065,65711.6456695023,65711.646168998,65711.6466684937,65711.6471679895,65711.6476674852,65711.6481669809,65711.6486664767,65711.6491659724,65711.6496654681,65711.6501649639,65711.6506644596,65711.6511639553,65711.651663451,65711.6521629468,65711.6526624425,65711.6531619382,65711.653661434,65711.6541609297,65711.6546604254,65711.6551599212,65711.6556594169,65711.6561589126,65711.6566584083,65711.6571579041,65711.6576573998,65711.6581568955,65711.6586563913,65711.659155887,65711.6596553827,65711.6601548785,65711.6606543742,65711.6611538699,65711.6616533657,65711.6621528614,65711.6626523571,65711.6631518529,65711.6636513486,65711.6641508443,65711.66465034,65711.6651498358,65711.6656493315,65711.6661488272,65711.666648323,65711.6671478187,65711.6676473144,65711.6681468102,65711.6686463059,65711.6691458016,65711.6696452974,65711.6701447931,65711.6706442888,65711.6711437846,65711.6716432803,65711.672142776,65711.6726422717,65711.6731417675,65711.6736412632,65711.6741407589,65711.6746402547,65711.6751397504,65711.6756392461,65711.6761387419,65711.6766382376,65711.6771377333,65711.677637229,65711.6781367248,65711.6786362205,65711.6791357162,65711.679635212,65711.6801347077,65711.6806342034,65711.6811336992,65711.6816331949,65711.6821326906,65711.6826321863,65711.6831316821,65711.6836311778,65711.6841306735,65711.6846301693,65711.685129665,65711.6856291607,65711.6861286565,65711.6866281522,65711.6871276479,65711.6876271437,65711.6881266394,65711.6886261351,65711.6891256309,65711.6896251266,65711.6901246223,65711.6906241181,65711.6911236138,65711.6916231095,65711.6921226052,65711.692622101,65711.6931215967,65711.6936210924,65711.6941205882,65711.6946200839,65711.6951195796,65711.6956190754,65711.6961185711,65711.6966180668,65711.6971175626,65711.6976170583,65711.698116554,65711.6986160497,65711.6991155455,65711.6996150412,65711.7001145369,65711.7006140327,65711.7011135284,65711.7016130241,65711.7021125199,65711.7026120156,65711.7031115113,65711.703611007,65711.7041105028,65711.7046099985,65711.7051094942,65711.70560899,65711.7061084857,65711.7066079814,65711.7071074772,65711.7076069729,65711.7081064686,65711.7086059644,65711.7091054601,65711.7096049558,65711.7101044515,65711.7106039473,65711.711103443,65711.7116029387,65711.7121024345,65711.7126019302,65711.7131014259,65711.7136009217,65711.7141004174,65711.7145999131,65711.7150994089,65711.7155989046,65711.7160984003,65711.7165978961,65711.7170973918,65711.7175968875,65711.7180963832,65711.718595879,65711.7190953747,65711.7195948704,65711.7200943662,65711.7205938619,65711.7210933576,65711.7215928534,65711.7220923491,65711.7225918448,65711.7230913406,65711.7235908363,65711.724090332,65711.7245898277,65711.7250893235,65711.7255888192,65711.7260883149,65711.7265878107,65711.7270873064,65711.7275868021,65711.7280862979,65711.7285857936,65711.7290852893,65711.729584785,65711.7300842808,65711.7305837765,65711.7310832722,65711.731582768,65711.7320822637,65711.7325817594,65711.7330812552,65711.7335807509,65711.7340802466,65711.7345797424,65711.7350792381,65711.7355787338,65711.7360782296,65711.7365777253,65711.737077221,65711.7375767167,65711.7380762125,65711.7385757082,65711.7390752039,65711.7395746997,65711.7400741954,65711.7405736911,65711.7410731869,65711.7415726826,65711.7420721783,65711.7425716741,65711.7430711698,65711.7435706655,65711.7440701613,65711.744569657,65711.7450691527,65711.7455686484,65711.7460681442,65711.7465676399,65711.7470671356,65711.7475666314,65711.7480661271,65711.7485656228,65711.7490651186,65711.7495646143,65711.75006411,65711.7505636057,65711.7510631015,65711.7515625972,65711.7520620929,65711.7525615887,65711.7530610844,65711.7535605801,65711.7540600759,65711.7545595716,65711.7550590673,65711.755558563,65711.7560580588,65711.7565575545,65711.7570570502,65711.757556546,65711.7580560417,65711.7585555374,65711.7590550332,65711.7595545289,65711.7600540246,65711.7605535204,65711.7610530161,65711.7615525118,65711.7620520076,65711.7625515033,65711.763050999,65711.7635504947,65711.7640499905,65711.7645494862,65711.7650489819,65711.7655484777,65711.7660479734,65711.7665474691,65711.7670469649,65711.7675464606,65711.7680459563,65711.7685454521,65711.7690449478,65711.7695444435,65711.7700439393,65711.770543435,65711.7710429307,65711.7715424264,65711.7720419222,65711.7725414179,65711.7730409136,65711.7735404094,65711.7740399051,65711.7745394008,65711.7750388966,65711.7755383923,65711.776037888,65711.7765373837,65711.7770368795,65711.7775363752,65711.7780358709,65711.7785353667,65711.7790348624,65711.7795343581,65711.7800338539,65711.7805333496,65711.7810328453,65711.7815323411,65711.7820318368,65711.7825313325,65711.7830308282,65711.783530324,65711.7840298197,65711.7845293154,65711.7850288112,65711.7855283069,65711.7860278026,65711.7865272984,65711.7870267941,65711.7875262898,65711.7880257856,65711.7885252813,65711.789024777,65711.7895242728,65711.7900237685,65711.7905232642,65711.7910227599,65711.7915222557,65711.7920217514,65711.7925212471,65711.7930207429,65711.7935202386,65711.7940197343,65711.7945192301,65711.7950187258,65711.7955182215,65711.7960177172,65711.796517213,65711.7970167087,65711.7975162044,65711.7980157002,65711.7985151959,65711.7990146916,65711.7995141874,65711.8000136831,65711.8005131788,65711.8010126746,65711.8015121703,65711.802011666,65711.8025111617,65711.8030106575,65711.8035101532,65711.8040096489,65711.8045091447,65711.8050086404,65711.8055081361,65711.8060076319,65711.8065071276,65711.8070066233,65711.8075061191,65711.8080056148,65711.8085051105,65711.8090046063,65711.809504102,65711.8100035977,65711.8105030934,65711.8110025892,65711.8115020849,65711.8120015806,65711.8125010764,65711.8130005721,65711.8135000678,65711.8139995636,65711.8144990593,65711.814998555,65711.8154980508,65711.8159975465,65711.8164970422,65711.8169965379,65711.8174960337,65711.8179955294,65711.8184950251,65711.8189945209,65711.8194940166,65711.8199935123,65711.8204930081,65711.8209925038,65711.8214919995,65711.8219914952,65711.822490991,65711.8229904867,65711.8234899824,65711.8239894782,65711.8244889739,65711.8249884696,65711.8254879654,65711.8259874611,65711.8264869568,65711.8269864526,65711.8274859483,65711.827985444,65711.8284849397,65711.8289844355,65711.8294839312,65711.8299834269,65711.8304829227,65711.8309824184,65711.8314819141,65711.8319814099,65711.8324809056,65711.8329804013,65711.8334798971,65711.8339793928,65711.8344788885,65711.8349783843,65711.83547788,65711.8359773757,65711.8364768714,65711.8369763672,65711.8374758629,65711.8379753586,65711.8384748544,65711.8389743501,65711.8394738458,65711.8399733416,65711.8404728373,65711.840972333,65711.8414718288,65711.8419713245,65711.8424708202,65711.8429703159,65711.8434698117,65711.8439693074,65711.8444688031,65711.8449682989,65711.8454677946,65711.8459672903,65711.8464667861,65711.8469662818,65711.8474657775,65711.8479652732,65711.848464769,65711.8489642647,65711.8494637604,65711.8499632562,65711.8504627519,65711.8509622476,65711.8514617434,65711.8519612391,65711.8524607348,65711.8529602306,65711.8534597263,65711.853959222,65711.8544587178,65711.8549582135,65711.8554577092,65711.8559572049,65711.8564567007,65711.8569561964,65711.8574556921,65711.8579551879,65711.8584546836,65711.8589541793,65711.8594536751,65711.8599531708,65711.8604526665,65711.8609521623,65711.861451658,65711.8619511537,65711.8624506495,65711.8629501452,65711.8634496409,65711.8639491366,65711.8644486324,65711.8649481281,65711.8654476238,65711.8659471196,65711.8664466153,65711.866946111,65711.8674456068,65711.8679451025,65711.8684445982,65711.8689440939,65711.8694435897,65711.8699430854,65711.8704425811,65711.8709420769,65711.8714415726,65711.8719410683,65711.8724405641,65711.8729400598,65711.8734395555,65711.8739390512,65711.874438547,65711.8749380427,65711.8754375384,65711.8759370342,65711.8764365299,65711.8769360256,65711.8774355214,65711.8779350171,65711.8784345128,65711.8789340086,65711.8794335043,65711.879933,65711.8804324958,65711.8809319915,65711.8814314872,65711.8819309829,65711.8824304787,65711.8829299744,65711.8834294701,65711.8839289659,65711.8844284616,65711.8849279573,65711.8854274531,65711.8859269488,65711.8864264445,65711.8869259403,65711.887425436,65711.8879249317,65711.8884244275,65711.8889239232,65711.8894234189,65711.8899229146,65711.8904224104,65711.8909219061,65711.8914214018,65711.8919208976,65711.8924203933,65711.892919889,65711.8934193848,65711.8939188805,65711.8944183762,65711.8949178719,65711.8954173677,65711.8959168634,65711.8964163591,65711.8969158549,65711.8974153506,65711.8979148463,65711.8984143421,65711.8989138378,65711.8994133335,65711.8999128293,65711.900412325,65711.9009118207,65711.9014113164,65711.9019108122,65711.9024103079,65711.9029098036,65711.9034092994,65711.9039087951,65711.9044082908,65711.9049077866,65711.9054072823,65711.905906778,65711.9064062738,65711.9069057695,65711.9074052652,65711.907904761,65711.9084042567,65711.9089037524,65711.9094032481,65711.9099027439,65711.9104022396,65711.9109017353,65711.9114012311,65711.9119007268,65711.9124002225,65711.9128997183,65711.913399214,65711.9138987097,65711.9143982055,65711.9148977012,65711.9153971969,65711.9158966926,65711.9163961884,65711.9168956841,65711.9173951798,65711.9178946756,65711.9183941713,65711.918893667,65711.9193931628,65711.9198926585,65711.9203921542,65711.9208916499,65711.9213911457,65711.9218906414,65711.9223901371,65711.9228896329,65711.9233891286,65711.9238886243,65711.9243881201,65711.9248876158,65711.9253871115,65711.9258866073,65711.926386103,65711.9268855987,65711.9273850945,65711.9278845902,65711.9283840859,65711.9288835816,65711.9293830774,65711.9298825731,65711.9303820688,65711.9308815646,65711.9313810603,65711.931880556,65711.9323800518,65711.9328795475,65711.9333790432,65711.933878539,65711.9343780347,65711.9348775304,65711.9353770262,65711.9358765219,65711.9363760176,65711.9368755133,65711.9373750091,65711.9378745048,65711.9383740005,65711.9388734963,65711.939372992,65711.9398724877,65711.9403719835,65711.9408714792,65711.9413709749,65711.9418704706,65711.9423699664,65711.9428694621,65711.9433689578,65711.9438684536,65711.9443679493,65711.944867445,65711.9453669408,65711.9458664365,65711.9463659322,65711.9468654279,65711.9473649237,65711.9478644194,65711.9483639151,65711.9488634109,65711.9493629066,65711.9498624023,65711.9503618981,65711.9508613938,65711.9513608895,65711.9518603853,65711.952359881,65711.9528593767,65711.9533588725,65711.9538583682,65711.9543578639,65711.9548573596,65711.9553568554,65711.9558563511,65711.9563558468,65711.9568553426,65711.9573548383,65711.957854334,65711.9583538298,65711.9588533255,65711.9593528212,65711.959852317,65711.9603518127,65711.9608513084,65711.9613508042,65711.9618502999,65711.9623497956,65711.9628492913,65711.9633487871,65711.9638482828,65711.9643477785,65711.9648472743,65711.96534677,65711.9658462657,65711.9663457615,65711.9668452572,65711.9673447529,65711.9678442486,65711.9683437444,65711.9688432401,65711.9693427358,65711.9698422316,65711.9703417273,65711.970841223,65711.9713407188,65711.9718402145,65711.9723397102,65711.972839206,65711.9733387017,65711.9738381974,65711.9743376931,65711.9748371889,65711.9753366846,65711.9758361803,65711.9763356761,65711.9768351718,65711.9773346675,65711.9778341633,65711.978333659,65711.9788331547,65711.9793326505,65711.9798321462,65711.9803316419,65711.9808311377,65711.9813306334,65711.9818301291,65711.9823296248,65711.9828291206,65711.9833286163,65711.983828112,65711.9843276078,65711.9848271035,65711.9853265992,65711.985826095,65711.9863255907,65711.9868250864,65711.9873245822,65711.9878240779,65711.9883235736,65711.9888230693,65711.9893225651,65711.9898220608,65711.9903215565,65711.9908210523,65711.991320548,65711.9918200437,65711.9923195395,65711.9928190352,65711.9933185309,65711.9938180266,65711.9943175224,65711.9948170181,65711.9953165138,65711.9958160096,65711.9963155053,65711.996815001,65711.9973144968,65711.9978139925,65711.9983134882,65711.998812984,65711.9993124797,65711.9998119754,65712.0003114711,65712.0008109669,65712.0013104626,65712.0018099583,65712.0023094541,65712.0028089498,65712.0033084455,65712.0038079413,65712.004307437,65712.0048069327,65712.0053064285,65712.0058059242,65712.0063054199,65712.0068049157,65712.0073044114,65712.0078039071,65712.0083034029,65712.0088028986,65712.0093023943,65712.00980189,65712.0103013858,65712.0108008815,65712.0113003772,65712.011799873,65712.0122993687,65712.0127988644,65712.0132983602,65712.0137978559,65712.0142973516,65712.0147968473,65712.0152963431,65712.0157958388,65712.0162953345,65712.0167948303,65712.017294326,65712.0177938217,65712.0182933175,65712.0187928132,65712.0192923089,65712.0197918046,65712.0202913004,65712.0207907961,65712.0212902918,65712.0217897876,65712.0222892833,65712.022788779,65712.0232882748,65712.0237877705,65712.0242872662,65712.024786762,65712.0252862577,65712.0257857534,65712.0262852492,65712.0267847449,65712.0272842406,65712.0277837363,65712.0282832321,65712.0287827278,65712.0292822235,65712.0297817193,65712.030281215,65712.0307807107,65712.0312802065,65712.0317797022,65712.0322791979,65712.0327786937,65712.0332781894,65712.0337776851,65712.0342771809,65712.0347766766,65712.0352761723,65712.035775668,65712.0362751638,65712.0367746595,65712.0372741552,65712.037773651,65712.0382731467,65712.0387726424,65712.0392721382,65712.0397716339,65712.0402711296,65712.0407706253,65712.0412701211,65712.0417696168,65712.0422691125,65712.0427686083,65712.043268104,65712.0437675997,65712.0442670955,65712.0447665912,65712.0452660869,65712.0457655827,65712.0462650784,65712.0467645741,65712.0472640698,65712.0477635656,65712.0482630613,65712.048762557,65712.0492620528,65712.0497615485,65712.0502610442,65712.05076054,65712.0512600357,65712.0517595314,65712.0522590272,65712.0527585229,65712.0532580186,65712.0537575144,65712.0542570101,65712.0547565058,65712.0552560015,65712.0557554973,65712.056254993,65712.0567544887,65712.0572539845,65712.0577534802,65712.0582529759,65712.0587524717,65712.0592519674,65712.0597514631,65712.0602509588,65712.0607504546,65712.0612499503,65712.061749446,65712.0622489418,65712.0627484375,65712.0632479332,65712.063747429,65712.0642469247,65712.0647464204,65712.0652459162,65712.0657454119,65712.0662449076,65712.0667444033,65712.0672438991,65712.0677433948,65712.0682428905,65712.0687423863,65712.069241882,65712.0697413777,65712.0702408735,65712.0707403692,65712.0712398649,65712.0717393607,65712.0722388564,65712.0727383521,65712.0732378478,65712.0737373436,65712.0742368393,65712.074736335,65712.0752358308,65712.0757353265,65712.0762348222,65712.076734318,65712.0772338137,65712.0777333094,65712.0782328052,65712.0787323009,65712.0792317966,65712.0797312924,65712.0802307881,65712.0807302838,65712.0812297795,65712.0817292753,65712.082228771,65712.0827282667,65712.0832277625,65712.0837272582,65712.0842267539,65712.0847262497,65712.0852257454,65712.0857252411,65712.0862247368,65712.0867242326,65712.0872237283,65712.087723224,65712.0882227198,65712.0887222155,65712.0892217112,65712.089721207,65712.0902207027,65712.0907201984,65712.0912196942,65712.0917191899,65712.0922186856,65712.0927181813,65712.0932176771,65712.0937171728,65712.0942166685,65712.0947161643,65712.09521566,65712.0957151557,65712.0962146515,65712.0967141472,65712.0972136429,65712.0977131387,65712.0982126344,65712.0987121301,65712.0992116259,65712.0997111216,65712.1002106173,65712.100710113,65712.1012096088,65712.1017091045,65712.1022086002,65712.102708096,65712.1032075917,65712.1037070874,65712.1042065832,65712.1047060789,65712.1052055746,65712.1057050704,65712.1062045661,65712.1067040618,65712.1072035575,65712.1077030533,65712.108202549,65712.1087020447,65712.1092015405,65712.1097010362,65712.1102005319,65712.1107000277,65712.1111995234,65712.1116990191,65712.1121985148,65712.1126980106,65712.1131975063,65712.113697002,65712.1141964978,65712.1146959935,65712.1151954892,65712.115694985,65712.1161944807,65712.1166939764,65712.1171934722,65712.1176929679,65712.1181924636,65712.1186919593,65712.1191914551,65712.1196909508,65712.1201904465,65712.1206899423,65712.121189438,65712.1216889337,65712.1221884295,65712.1226879252,65712.1231874209,65712.1236869167,65712.1241864124,65712.1246859081,65712.1251854039,65712.1256848996,65712.1261843953,65712.1266838911,65712.1271833868,65712.1276828825,65712.1281823782,65712.128681874,65712.1291813697,65712.1296808654,65712.1301803612,65712.1306798569,65712.1311793526,65712.1316788484,65712.1321783441,65712.1326778398,65712.1331773355,65712.1336768313,65712.134176327,65712.1346758227,65712.1351753185,65712.1356748142,65712.1361743099,65712.1366738057,65712.1371733014,65712.1376727971,65712.1381722928,65712.1386717886,65712.1391712843,65712.13967078,65712.1401702758,65712.1406697715,65712.1411692672,65712.141668763,65712.1421682587,65712.1426677544,65712.1431672502,65712.1436667459,65712.1441662416,65712.1446657374,65712.1451652331,65712.1456647288,65712.1461642245,65712.1466637203,65712.147163216,65712.1476627117,65712.1481622075,65712.1486617032,65712.1491611989,65712.1496606947,65712.1501601904,65712.1506596861,65712.1511591819,65712.1516586776,65712.1521581733,65712.1526576691,65712.1531571648,65712.1536566605,65712.1541561562,65712.154655652,65712.1551551477,65712.1556546434,65712.1561541392,65712.1566536349,65712.1571531306,65712.1576526264,65712.1581521221,65712.1586516178,65712.1591511135,65712.1596506093,65712.160150105,65712.1606496007,65712.1611490965,65712.1616485922,65712.1621480879,65712.1626475837,65712.1631470794,65712.1636465751,65712.1641460709,65712.1646455666,65712.1651450623,65712.165644558,65712.1661440538,65712.1666435495,65712.1671430452,65712.167642541,65712.1681420367,65712.1686415324,65712.1691410282,65712.1696405239,65712.1701400196,65712.1706395154,65712.1711390111,65712.1716385068,65712.1721380026,65712.1726374983,65712.173136994,65712.1736364897,65712.1741359855,65712.1746354812,65712.1751349769,65712.1756344727,65712.1761339684,65712.1766334641,65712.1771329599,65712.1776324556,65712.1781319513,65712.1786314471,65712.1791309428,65712.1796304385,65712.1801299342,65712.18062943,65712.1811289257,65712.1816284214,65712.1821279172,65712.1826274129,65712.1831269086,65712.1836264044,65712.1841259001,65712.1846253958,65712.1851248915,65712.1856243873,65712.186123883,65712.1866233787,65712.1871228745,65712.1876223702,65712.1881218659,65712.1886213617,65712.1891208574,65712.1896203531,65712.1901198489,65712.1906193446,65712.1911188403,65712.191618336,65712.1921178318,65712.1926173275,65712.1931168232,65712.193616319,65712.1941158147,65712.1946153104,65712.1951148062,65712.1956143019,65712.1961137976,65712.1966132934,65712.1971127891,65712.1976122848,65712.1981117806,65712.1986112763,65712.199110772,65712.1996102678,65712.2001097635,65712.2006092592,65712.2011087549,65712.2016082507,65712.2021077464,65712.2026072421,65712.2031067379,65712.2036062336,65712.2041057293,65712.2046052251,65712.2051047208,65712.2056042165,65712.2061037122,65712.206603208,65712.2071027037,65712.2076021994,65712.2081016952,65712.2086011909,65712.2091006866,65712.2096001824,65712.2100996781,65712.2105991738,65712.2110986695,65712.2115981653,65712.212097661,65712.2125971567,65712.2130966525,65712.2135961482,65712.2140956439,65712.2145951397,65712.2150946354,65712.2155941311,65712.2160936269,65712.2165931226,65712.2170926183,65712.2175921141,65712.2180916098,65712.2185911055,65712.2190906012,65712.219590097,65712.2200895927,65712.2205890884,65712.2210885842,65712.2215880799,65712.2220875756,65712.2225870714,65712.2230865671,65712.2235860628,65712.2240855586,65712.2245850543,65712.22508455,65712.2255840458,65712.2260835415,65712.2265830372,65712.2270825329,65712.2275820287,65712.2280815244,65712.2285810201,65712.2290805159,65712.2295800116,65712.2300795073,65712.2305790031,65712.2310784988,65712.2315779945,65712.2320774902,65712.232576986,65712.2330764817,65712.2335759774,65712.2340754732,65712.2345749689,65712.2350744646,65712.2355739604,65712.2360734561,65712.2365729518,65712.2370724475,65712.2375719433,65712.238071439,65712.2385709347,65712.2390704305,65712.2395699262,65712.2400694219,65712.2405689177,65712.2410684134,65712.2415679091,65712.2420674049,65712.2425669006,65712.2430663963,65712.2435658921,65712.2440653878,65712.2445648835,65712.2450643793,65712.245563875,65712.2460633707,65712.2465628664,65712.2470623622,65712.2475618579,65712.2480613536,65712.2485608494,65712.2490603451,65712.2495598408,65712.2500593366,65712.2505588323,65712.251058328,65712.2515578238,65712.2520573195,65712.2525568152,65712.2530563109,65712.2535558067,65712.2540553024,65712.2545547981,65712.2550542939,65712.2555537896,65712.2560532853,65712.2565527811,65712.2570522768,65712.2575517725,65712.2580512682,65712.258550764,65712.2590502597,65712.2595497554,65712.2600492512,65712.2605487469,65712.2610482426,65712.2615477384,65712.2620472341,65712.2625467298,65712.2630462256,65712.2635457213,65712.264045217,65712.2645447127,65712.2650442085,65712.2655437042,65712.2660431999,65712.2665426957,65712.2670421914,65712.2675416871,65712.2680411829,65712.2685406786,65712.2690401743,65712.2695396701,65712.2700391658,65712.2705386615,65712.2710381573,65712.271537653,65712.2720371487,65712.2725366444,65712.2730361402,65712.2735356359,65712.2740351316,65712.2745346274,65712.2750341231,65712.2755336188,65712.2760331146,65712.2765326103,65712.277032106,65712.2775316018,65712.2780310975,65712.2785305932,65712.2790300889,65712.2795295847,65712.2800290804,65712.2805285761,65712.2810280719,65712.2815275676,65712.2820270633,65712.2825265591,65712.2830260548,65712.2835255505,65712.2840250462,65712.284524542,65712.2850240377,65712.2855235334,65712.2860230292,65712.2865225249,65712.2870220206,65712.2875215164,65712.2880210121,65712.2885205078,65712.2890200036,65712.2895194993,65712.290018995,65712.2905184908,65712.2910179865,65712.2915174822,65712.2920169779,65712.2925164737,65712.2930159694,65712.2935154651,65712.2940149609,65712.2945144566,65712.2950139523,65712.2955134481,65712.2960129438,65712.2965124395,65712.2970119353,65712.297511431,65712.2980109267,65712.2985104224,65712.2990099182,65712.2995094139,65712.3000089096,65712.3005084054,65712.3010079011,65712.3015073968,65712.3020068926,65712.3025063883,65712.303005884,65712.3035053798,65712.3040048755,65712.3045043712,65712.3050038669,65712.3055033627,65712.3060028584,65712.3065023541,65712.3070018499,65712.3075013456,65712.3080008413,65712.3085003371,65712.3089998328,65712.3094993285,65712.3099988242,65712.31049832,65712.3109978157,65712.3114973114,65712.3119968072,65712.3124963029,65712.3129957986,65712.3134952944,65712.3139947901,65712.3144942858,65712.3149937816,65712.3154932773,65712.315992773,65712.3164922688,65712.3169917645,65712.3174912602,65712.317990756,65712.3184902517,65712.3189897474,65712.3194892431,65712.3199887389,65712.3204882346,65712.3209877303,65712.3214872261,65712.3219867218,65712.3224862175,65712.3229857133,65712.323485209,65712.3239847047,65712.3244842004,65712.3249836962,65712.3254831919,65712.3259826876,65712.3264821834,65712.3269816791,65712.3274811748,65712.3279806706,65712.3284801663,65712.328979662,65712.3294791578,65712.3299786535,65712.3304781492,65712.3309776449,65712.3314771407,65712.3319766364,65712.3324761321,65712.3329756279,65712.3334751236,65712.3339746193,65712.3344741151,65712.3349736108,65712.3354731065,65712.3359726023,65712.336472098,65712.3369715937,65712.3374710894,65712.3379705852,65712.3384700809,65712.3389695766,65712.3394690724,65712.3399685681,65712.3404680638,65712.3409675596,65712.3414670553,65712.341966551,65712.3424660468,65712.3429655425,65712.3434650382,65712.343964534,65712.3444640297,65712.3449635254,65712.3454630211,65712.3459625169,65712.3464620126,65712.3469615083,65712.3474610041,65712.3479604998,65712.3484599955,65712.3489594913,65712.349458987,65712.3499584827,65712.3504579784,65712.3509574742,65712.3514569699,65712.3519564656,65712.3524559614,65712.3529554571,65712.3534549528,65712.3539544486,65712.3544539443,65712.35495344,65712.3554529358,65712.3559524315,65712.3564519272,65712.3569514229,65712.3574509187,65712.3579504144,65712.3584499101,65712.3589494059,65712.3594489016,65712.3599483973,65712.3604478931,65712.3609473888,65712.3614468845,65712.3619463803,65712.362445876,65712.3629453717,65712.3634448675,65712.3639443632,65712.3644438589,65712.3649433546,65712.3654428504,65712.3659423461,65712.3664418418,65712.3669413376,65712.3674408333,65712.367940329,65712.3684398248,65712.3689393205,65712.3694388162,65712.369938312,65712.3704378077,65712.3709373034,65712.3714367991,65712.3719362949,65712.3724357906,65712.3729352863,65712.3734347821,65712.3739342778,65712.3744337735,65712.3749332693,65712.375432765,65712.3759322607,65712.3764317564,65712.3769312522,65712.3774307479,65712.3779302436,65712.3784297394,65712.3789292351,65712.3794287308,65712.3799282266,65712.3804277223,65712.380927218,65712.3814267138,65712.3819262095,65712.3824257052,65712.3829252009,65712.3834246967,65712.3839241924,65712.3844236881,65712.3849231839,65712.3854226796,65712.3859221753,65712.3864216711,65712.3869211668,65712.3874206625,65712.3879201583,65712.388419654,65712.3889191497,65712.3894186455,65712.3899181412,65712.3904176369,65712.3909171326,65712.3914166284,65712.3919161241,65712.3924156198,65712.3929151156,65712.3934146113,65712.393914107,65712.3944136028,65712.3949130985,65712.3954125942,65712.39591209,65712.3964115857,65712.3969110814,65712.3974105771,65712.3979100729,65712.3984095686,65712.3989090643,65712.3994085601,65712.3999080558,65712.4004075515,65712.4009070473,65712.401406543,65712.4019060387,65712.4024055344,65712.4029050302,65712.4034045259,65712.4039040216,65712.4044035174,65712.4049030131,65712.4054025088,65712.4059020046,65712.4064015003,65712.406900996,65712.4074004918,65712.4078999875,65712.4083994832,65712.408898979,65712.4093984747,65712.4098979704,65712.4103974661,65712.4108969619,65712.4113964576,65712.4118959533,65712.4123954491,65712.4128949448,65712.4133944405,65712.4138939363,65712.414393432,65712.4148929277,65712.4153924235,65712.4158919192,65712.4163914149,65712.4168909107,65712.4173904064,65712.4178899021,65712.4183893978,65712.4188888936,65712.4193883893,65712.419887885,65712.4203873808,65712.4208868765,65712.4213863722,65712.421885868,65712.4223853637,65712.4228848594,65712.4233843551,65712.4238838509,65712.4243833466,65712.4248828423,65712.4253823381,65712.4258818338,65712.4263813295,65712.4268808253,65712.427380321,65712.4278798167,65712.4283793124,65712.4288788082,65712.4293783039,65712.4298777996,65712.4303772954,65712.4308767911,65712.4313762868,65712.4318757826,65712.4323752783,65712.432874774,65712.4333742698,65712.4338737655,65712.4343732612,65712.434872757,65712.4353722527,65712.4358717484,65712.4363712442,65712.4368707399,65712.4373702356,65712.4378697313,65712.4383692271,65712.4388687228,65712.4393682185,65712.4398677143,65712.44036721,65712.4408667057,65712.4413662015,65712.4418656972,65712.4423651929,65712.4428646887,65712.4433641844,65712.4438636801,65712.4443631758,65712.4448626716,65712.4453621673,65712.445861663,65712.4463611588,65712.4468606545,65712.4473601502,65712.447859646,65712.4483591417,65712.4488586374,65712.4493581331,65712.4498576289,65712.4503571246,65712.4508566203,65712.4513561161,65712.4518556118,65712.4523551075,65712.4528546033,65712.453354099,65712.4538535947,65712.4543530905,65712.4548525862,65712.4553520819,65712.4558515776,65712.4563510734,65712.4568505691,65712.4573500648,65712.4578495606,65712.4583490563,65712.458848552,65712.4593480478,65712.4598475435,65712.4603470392,65712.460846535,65712.4613460307,65712.4618455264,65712.4623450222,65712.4628445179,65712.4633440136,65712.4638435093,65712.4643430051,65712.4648425008,65712.4653419965,65712.4658414923,65712.466340988,65712.4668404837,65712.4673399795,65712.4678394752,65712.4683389709,65712.4688384667,65712.4693379624,65712.4698374581,65712.4703369538,65712.4708364496,65712.4713359453,65712.471835441,65712.4723349368,65712.4728344325,65712.4733339282,65712.473833424,65712.4743329197,65712.4748324154,65712.4753319111,65712.4758314069,65712.4763309026,65712.4768303983,65712.4773298941,65712.4778293898,65712.4783288855,65712.4788283813,65712.479327877,65712.4798273727,65712.4803268685,65712.4808263642,65712.4813258599,65712.4818253557,65712.4823248514,65712.4828243471,65712.4833238428,65712.4838233386,65712.4843228343,65712.48482233,65712.4853218258,65712.4858213215,65712.4863208172,65712.486820313,65712.4873198087,65712.4878193044,65712.4883188002,65712.4888182959,65712.4893177916,65712.4898172874,65712.4903167831,65712.4908162788,65712.4913157745,65712.4918152703,65712.492314766,65712.4928142617,65712.4933137575,65712.4938132532,65712.4943127489,65712.4948122447,65712.4953117404,65712.4958112361,65712.4963107318,65712.4968102276,65712.4973097233,65712.497809219,65712.4983087148,65712.4988082105,65712.4993077062,65712.499807202,65712.5003066977,65712.5008061934,65712.5013056891,65712.5018051849,65712.5023046806,65712.5028041763,65712.5033036721,65712.5038031678,65712.5043026635,65712.5048021593,65712.505301655,65712.5058011507,65712.5063006465,65712.5068001422,65712.5072996379,65712.5077991337,65712.5082986294,65712.5087981251,65712.5092976208,65712.5097971166,65712.5102966123,65712.510796108,65712.5112956038,65712.5117950995,65712.5122945952,65712.512794091,65712.5132935867,65712.5137930824,65712.5142925782,65712.5147920739,65712.5152915696,65712.5157910654,65712.5162905611,65712.5167900568,65712.5172895525,65712.5177890483,65712.518288544,65712.5187880397,65712.5192875355,65712.5197870312,65712.5202865269,65712.5207860227,65712.5212855184,65712.5217850141,65712.5222845098,65712.5227840056,65712.5232835013,65712.523782997,65712.5242824928,65712.5247819885,65712.5252814842,65712.52578098,65712.5262804757,65712.5267799714,65712.5272794672,65712.5277789629,65712.5282784586,65712.5287779543,65712.5292774501,65712.5297769458,65712.5302764415,65712.5307759373,65712.531275433,65712.5317749287,65712.5322744245,65712.5327739202,65712.5332734159,65712.5337729117,65712.5342724074,65712.5347719031,65712.5352713989,65712.5357708946,65712.5362703903,65712.536769886,65712.5372693818,65712.5377688775,65712.5382683732,65712.538767869,65712.5392673647,65712.5397668604,65712.5402663562,65712.5407658519,65712.5412653476,65712.5417648434,65712.5422643391,65712.5427638348,65712.5432633305,65712.5437628263,65712.544262322,65712.5447618177,65712.5452613135,65712.5457608092,65712.5462603049,65712.5467598007,65712.5472592964,65712.5477587921,65712.5482582878,65712.5487577836,65712.5492572793,65712.549756775,65712.5502562708,65712.5507557665,65712.5512552622,65712.551754758,65712.5522542537,65712.5527537494,65712.5532532452,65712.5537527409,65712.5542522366,65712.5547517324,65712.5552512281,65712.5557507238,65712.5562502195,65712.5567497153,65712.557249211,65712.5577487067,65712.5582482025,65712.5587476982,65712.5592471939,65712.5597466897,65712.5602461854,65712.5607456811,65712.5612451769,65712.5617446726,65712.5622441683,65712.562743664,65712.5632431598,65712.5637426555,65712.5642421512,65712.564741647,65712.5652411427,65712.5657406384,65712.5662401342,65712.5667396299,65712.5672391256,65712.5677386214,65712.5682381171,65712.5687376128,65712.5692371085,65712.5697366043,65712.5702361,65712.5707355957,65712.5712350915,65712.5717345872,65712.5722340829,65712.5727335787,65712.5732330744,65712.5737325701,65712.5742320658,65712.5747315616,65712.5752310573,65712.575730553,65712.5762300488,65712.5767295445,65712.5772290402,65712.577728536,65712.5782280317,65712.5787275274,65712.5792270232,65712.5797265189,65712.5802260146,65712.5807255104,65712.5812250061,65712.5817245018,65712.5822239975,65712.5827234933,65712.583222989,65712.5837224847,65712.5842219805,65712.5847214762,65712.5852209719,65712.5857204677,65712.5862199634,65712.5867194591,65712.5872189549,65712.5877184506,65712.5882179463,65712.588717442,65712.5892169378,65712.5897164335,65712.5902159292,65712.590715425,65712.5912149207,65712.5917144164,65712.5922139122,65712.5927134079,65712.5932129036,65712.5937123993,65712.5942118951,65712.5947113908,65712.5952108865,65712.5957103823,65712.596209878,65712.5967093737,65712.5972088695,65712.5977083652,65712.5982078609,65712.5987073567,65712.5992068524,65712.5997063481,65712.6002058439,65712.6007053396,65712.6012048353,65712.601704331,65712.6022038268,65712.6027033225,65712.6032028182,65712.603702314,65712.6042018097,65712.6047013054,65712.6052008012,65712.6057002969,65712.6061997926,65712.6066992884,65712.6071987841,65712.6076982798,65712.6081977756,65712.6086972713,65712.609196767,65712.6096962627,65712.6101957585,65712.6106952542,65712.6111947499,65712.6116942457,65712.6121937414,65712.6126932371,65712.6131927329,65712.6136922286,65712.6141917243,65712.61469122,65712.6151907158,65712.6156902115,65712.6161897072,65712.616689203,65712.6171886987,65712.6176881944,65712.6181876902,65712.6186871859,65712.6191866816,65712.6196861773,65712.6201856731,65712.6206851688,65712.6211846645,65712.6216841603,65712.622183656,65712.6226831517,65712.6231826475,65712.6236821432,65712.6241816389,65712.6246811347,65712.6251806304,65712.6256801261,65712.6261796219,65712.6266791176,65712.6271786133,65712.627678109,65712.6281776048,65712.6286771005,65712.6291765962,65712.629676092,65712.6301755877,65712.6306750834,65712.6311745792,65712.6316740749,65712.6321735706,65712.6326730664,65712.6331725621,65712.6336720578,65712.6341715536,65712.6346710493,65712.635170545,65712.6356700407,65712.6361695365,65712.6366690322,65712.6371685279,65712.6376680237,65712.6381675194,65712.6386670151,65712.6391665109,65712.6396660066,65712.6401655023,65712.640664998,65712.6411644938,65712.6416639895,65712.6421634852,65712.642662981,65712.6431624767,65712.6436619724,65712.6441614682,65712.6446609639,65712.6451604596,65712.6456599554,65712.6461594511,65712.6466589468,65712.6471584425,65712.6476579383,65712.648157434,65712.6486569297,65712.6491564255,65712.6496559212,65712.6501554169,65712.6506549127,65712.6511544084,65712.6516539041,65712.6521533999,65712.6526528956,65712.6531523913,65712.6536518871,65712.6541513828,65712.6546508785,65712.6551503742,65712.65564987,65712.6561493657,65712.6566488614,65712.6571483572,65712.6576478529,65712.6581473486,65712.6586468444,65712.6591463401,65712.6596458358,65712.6601453316,65712.6606448273,65712.661144323,65712.6616438187,65712.6621433145,65712.6626428102,65712.6631423059,65712.6636418017,65712.6641412974,65712.6646407931,65712.6651402889,65712.6656397846,65712.6661392803,65712.666638776,65712.6671382718,65712.6676377675,65712.6681372632,65712.668636759,65712.6691362547,65712.6696357504,65712.6701352462,65712.6706347419,65712.6711342376,65712.6716337334,65712.6721332291,65712.6726327248,65712.6731322206,65712.6736317163,65712.674131212,65712.6746307077,65712.6751302035,65712.6756296992,65712.6761291949,65712.6766286907,65712.6771281864,65712.6776276821,65712.6781271779,65712.6786266736,65712.6791261693,65712.6796256651,65712.6801251608,65712.6806246565,65712.6811241523,65712.681623648,65712.6821231437,65712.6826226394,65712.6831221352,65712.6836216309,65712.6841211266,65712.6846206224,65712.6851201181,65712.6856196138,65712.6861191096,65712.6866186053,65712.687118101,65712.6876175967,65712.6881170925,65712.6886165882,65712.6891160839,65712.6896155797,65712.6901150754,65712.6906145711,65712.6911140669,65712.6916135626,65712.6921130583,65712.692612554,65712.6931120498,65712.6936115455,65712.6941110412,65712.694610537,65712.6951100327,65712.6956095284,65712.6961090242,65712.6966085199,65712.6971080156,65712.6976075114,65712.6981070071,65712.6986065028,65712.6991059986,65712.6996054943,65712.70010499,65712.7006044857,65712.7011039815,65712.7016034772,65712.7021029729,65712.7026024687,65712.7031019644,65712.7036014601,65712.7041009559,65712.7046004516,65712.7050999473,65712.7055994431,65712.7060989388,65712.7065984345,65712.7070979303,65712.707597426,65712.7080969217,65712.7085964174,65712.7090959132,65712.7095954089,65712.7100949046,65712.7105944004,65712.7110938961,65712.7115933918,65712.7120928876,65712.7125923833,65712.713091879,65712.7135913747,65712.7140908705,65712.7145903662,65712.7150898619,65712.7155893577,65712.7160888534,65712.7165883491,65712.7170878449,65712.7175873406,65712.7180868363,65712.7185863321,65712.7190858278,65712.7195853235,65712.7200848192,65712.720584315,65712.7210838107,65712.7215833064,65712.7220828022,65712.7225822979,65712.7230817936,65712.7235812894,65712.7240807851,65712.7245802808,65712.7250797766,65712.7255792723,65712.726078768,65712.7265782638,65712.7270777595,65712.7275772552,65712.7280767509,65712.7285762467,65712.7290757424,65712.7295752381,65712.7300747339,65712.7305742296,65712.7310737253,65712.7315732211,65712.7320727168,65712.7325722125,65712.7330717083,65712.733571204,65712.7340706997,65712.7345701954,65712.7350696912,65712.7355691869,65712.7360686826,65712.7365681784,65712.7370676741,65712.7375671698,65712.7380666656,65712.7385661613,65712.739065657,65712.7395651527,65712.7400646485,65712.7405641442,65712.7410636399,65712.7415631357,65712.7420626314,65712.7425621271,65712.7430616229,65712.7435611186,65712.7440606143,65712.7445601101,65712.7450596058,65712.7455591015,65712.7460585973,65712.746558093,65712.7470575887,65712.7475570844,65712.7480565802,65712.7485560759,65712.7490555716,65712.7495550674,65712.7500545631,65712.7505540588,65712.7510535546,65712.7515530503,65712.752052546,65712.7525520418,65712.7530515375,65712.7535510332,65712.754050529,65712.7545500247,65712.7550495204,65712.7555490161,65712.7560485119,65712.7565480076,65712.7570475033,65712.7575469991,65712.7580464948,65712.7585459905,65712.7590454863,65712.759544982,65712.7600444777,65712.7605439734,65712.7610434692,65712.7615429649,65712.7620424606,65712.7625419564,65712.7630414521,65712.7635409478,65712.7640404436,65712.7645399393,65712.765039435,65712.7655389307,65712.7660384265,65712.7665379222,65712.7670374179,65712.7675369137,65712.7680364094,65712.7685359051,65712.7690354009,65712.7695348966,65712.7700343923,65712.7705338881,65712.7710333838,65712.7715328795,65712.7720323753,65712.772531871,65712.7730313667,65712.7735308624,65712.7740303582,65712.7745298539,65712.7750293496,65712.7755288454,65712.7760283411,65712.7765278368,65712.7770273326,65712.7775268283,65712.778026324,65712.7785258198,65712.7790253155,65712.7795248112,65712.780024307,65712.7805238027,65712.7810232984,65712.7815227941,65712.7820222899,65712.7825217856,65712.7830212813,65712.7835207771,65712.7840202728,65712.7845197685,65712.7850192643,65712.78551876,65712.7860182557,65712.7865177514,65712.7870172472,65712.7875167429,65712.7880162386,65712.7885157344,65712.7890152301,65712.7895147258,65712.7900142216,65712.7905137173,65712.791013213,65712.7915127088,65712.7920122045,65712.7925117002,65712.7930111959,65712.7935106917,65712.7940101874,65712.7945096831,65712.7950091789,65712.7955086746,65712.7960081703,65712.7965076661,65712.7970071618,65712.7975066575,65712.7980061533,65712.798505649,65712.7990051447,65712.7995046405,65712.8000041362,65712.8005036319,65712.8010031276,65712.8015026234,65712.8020021191,65712.8025016148,65712.8030011106,65712.8035006063,65712.804000102,65712.8044995978,65712.8049990935,65712.8054985892,65712.805998085,65712.8064975807,65712.8069970764,65712.8074965721,65712.8079960679,65712.8084955636,65712.8089950593,65712.8094945551,65712.8099940508,65712.8104935465,65712.8109930423,65712.811492538,65712.8119920337,65712.8124915294,65712.8129910252,65712.8134905209,65712.8139900166,65712.8144895124,65712.8149890081,65712.8154885038,65712.8159879996,65712.8164874953,65712.816986991,65712.8174864868,65712.8179859825,65712.8184854782,65712.8189849739,65712.8194844697,65712.8199839654,65712.8204834611,65712.8209829569,65712.8214824526,65712.8219819483,65712.8224814441,65712.8229809398,65712.8234804355,65712.8239799313,65712.824479427,65712.8249789227,65712.8254784185,65712.8259779142,65712.8264774099,65712.8269769056,65712.8274764014,65712.8279758971,65712.8284753928,65712.8289748886,65712.8294743843,65712.82997388,65712.8304733758,65712.8309728715,65712.8314723672,65712.831971863,65712.8324713587,65712.8329708544,65712.8334703501,65712.8339698459,65712.8344693416,65712.8349688373,65712.8354683331,65712.8359678288,65712.8364673245,65712.8369668203,65712.837466316,65712.8379658117,65712.8384653074,65712.8389648032,65712.8394642989,65712.8399637946,65712.8404632904,65712.8409627861,65712.8414622818,65712.8419617776,65712.8424612733,65712.842960769,65712.8434602648,65712.8439597605,65712.8444592562,65712.844958752,65712.8454582477,65712.8459577434,65712.8464572391,65712.8469567349,65712.8474562306,65712.8479557263,65712.8484552221,65712.8489547178,65712.8494542135,65712.8499537093,65712.850453205,65712.8509527007,65712.8514521965,65712.8519516922,65712.8524511879,65712.8529506836,65712.8534501794,65712.8539496751,65712.8544491708,65712.8549486666,65712.8554481623,65712.855947658,65712.8564471538,65712.8569466495,65712.8574461452,65712.8579456409,65712.8584451367,65712.8589446324,65712.8594441281,65712.8599436239,65712.8604431196,65712.8609426153,65712.8614421111,65712.8619416068,65712.8624411025,65712.8629405983,65712.863440094,65712.8639395897,65712.8644390855,65712.8649385812,65712.8654380769,65712.8659375726,65712.8664370684,65712.8669365641,65712.8674360598,65712.8679355556,65712.8684350513,65712.868934547,65712.8694340428,65712.8699335385,65712.8704330342,65712.87093253,65712.8714320257,65712.8719315214,65712.8724310172,65712.8729305129,65712.8734300086,65712.8739295043,65712.8744290001,65712.8749284958,65712.8754279915,65712.8759274873,65712.876426983,65712.8769264787,65712.8774259745,65712.8779254702,65712.8784249659,65712.8789244616,65712.8794239574,65712.8799234531,65712.8804229488,65712.8809224446,65712.8814219403,65712.881921436,65712.8824209318,65712.8829204275,65712.8834199232,65712.8839194189,65712.8844189147,65712.8849184104,65712.8854179061,65712.8859174019,65712.8864168976,65712.8869163933,65712.8874158891,65712.8879153848,65712.8884148805,65712.8889143763,65712.889413872,65712.8899133677,65712.8904128635,65712.8909123592,65712.8914118549,65712.8919113506,65712.8924108464,65712.8929103421,65712.8934098378,65712.8939093336,65712.8944088293,65712.894908325,65712.8954078208,65712.8959073165,65712.8964068122,65712.896906308,65712.8974058037,65712.8979052994,65712.8984047952,65712.8989042909,65712.8994037866,65712.8999032823,65712.9004027781,65712.9009022738,65712.9014017695,65712.9019012653,65712.902400761,65712.9029002567,65712.9033997525,65712.9038992482,65712.9043987439,65712.9048982396,65712.9053977354,65712.9058972311,65712.9063967268,65712.9068962226,65712.9073957183,65712.907895214,65712.9083947098,65712.9088942055,65712.9093937012,65712.909893197,65712.9103926927,65712.9108921884,65712.9113916841,65712.9118911799,65712.9123906756,65712.9128901713,65712.9133896671,65712.9138891628,65712.9143886585,65712.9148881543,65712.91538765,65712.9158871457,65712.9163866415,65712.9168861372,65712.9173856329,65712.9178851287,65712.9183846244,65712.9188841201,65712.9193836158,65712.9198831116,65712.9203826073,65712.920882103,65712.9213815988,65712.9218810945,65712.9223805902,65712.922880086,65712.9233795817,65712.9238790774,65712.9243785732,65712.9248780689,65712.9253775646,65712.9258770603,65712.9263765561,65712.9268760518,65712.9273755475,65712.9278750433,65712.928374539,65712.9288740347,65712.9293735305,65712.9298730262,65712.9303725219,65712.9308720176,65712.9313715134,65712.9318710091,65712.9323705048,65712.9328700006,65712.9333694963,65712.933868992,65712.9343684878,65712.9348679835,65712.9353674792,65712.935866975,65712.9363664707,65712.9368659664,65712.9373654621,65712.9378649579,65712.9383644536,65712.9388639493,65712.9393634451,65712.9398629408,65712.9403624365,65712.9408619323,65712.941361428,65712.9418609237,65712.9423604195,65712.9428599152,65712.9433594109,65712.9438589067,65712.9443584024,65712.9448578981,65712.9453573939,65712.9458568896,65712.9463563853,65712.946855881,65712.9473553768,65712.9478548725,65712.9483543682,65712.948853864,65712.9493533597,65712.9498528554,65712.9503523512,65712.9508518469,65712.9513513426,65712.9518508383,65712.9523503341,65712.9528498298,65712.9533493255,65712.9538488213,65712.954348317,65712.9548478127,65712.9553473085,65712.9558468042,65712.9563462999,65712.9568457956,65712.9573452914,65712.9578447871,65712.9583442828,65712.9588437786,65712.9593432743,65712.95984277,65712.9603422658,65712.9608417615,65712.9613412572,65712.961840753,65712.9623402487,65712.9628397444,65712.9633392402,65712.9638387359,65712.9643382316,65712.9648377273,65712.9653372231,65712.9658367188,65712.9663362145,65712.9668357103,65712.967335206,65712.9678347017,65712.9683341975,65712.9688336932,65712.9693331889,65712.9698326847,65712.9703321804,65712.9708316761,65712.9713311719,65712.9718306676,65712.9723301633,65712.972829659,65712.9733291548,65712.9738286505,65712.9743281462,65712.974827642,65712.9753271377,65712.9758266334,65712.9763261292,65712.9768256249,65712.9773251206,65712.9778246163,65712.9783241121,65712.9788236078,65712.9793231035,65712.9798225993,65712.980322095,65712.9808215907,65712.9813210865,65712.9818205822,65712.9823200779,65712.9828195737,65712.9833190694,65712.9838185651,65712.9843180608,65712.9848175566,65712.9853170523,65712.985816548,65712.9863160438,65712.9868155395,65712.9873150352,65712.987814531,65712.9883140267,65712.9888135224,65712.9893130182,65712.9898125139,65712.9903120096,65712.9908115054,65712.9913110011,65712.9918104968,65712.9923099925,65712.9928094883,65712.993308984,65712.9938084797,65712.9943079755,65712.9948074712,65712.9953069669,65712.9958064627,65712.9963059584,65712.9968054541,65712.9973049499,65712.9978044456,65712.9983039413,65712.998803437,65712.9993029328,65712.9998024285,65713.0003019242,65713.00080142,65713.0013009157,65713.0018004114,65713.0022999072,65713.0027994029,65713.0032988986,65713.0037983943,65713.0042978901,65713.0047973858,65713.0052968815,65713.0057963773,65713.006295873,65713.0067953687,65713.0072948645,65713.0077943602,65713.0082938559,65713.0087933517,65713.0092928474,65713.0097923431,65713.0102918388,65713.0107913346,65713.0112908303,65713.011790326,65713.0122898218,65713.0127893175,65713.0132888132,65713.013788309,65713.0142878047,65713.0147873004,65713.0152867962,65713.0157862919,65713.0162857876,65713.0167852834,65713.0172847791,65713.0177842748,65713.0182837705,65713.0187832663,65713.019282762,65713.0197822577,65713.0202817535,65713.0207812492,65713.0212807449,65713.0217802407,65713.0222797364,65713.0227792321,65713.0232787279,65713.0237782236,65713.0242777193,65713.024777215,65713.0252767108,65713.0257762065,65713.0262757022,65713.026775198,65713.0272746937,65713.0277741894,65713.0282736852,65713.0287731809,65713.0292726766,65713.0297721723,65713.0302716681,65713.0307711638,65713.0312706595,65713.0317701553,65713.032269651,65713.0327691467,65713.0332686425,65713.0337681382,65713.0342676339,65713.0347671297,65713.0352666254,65713.0357661211,65713.0362656169,65713.0367651126,65713.0372646083,65713.037764104,65713.0382635998,65713.0387630955,65713.0392625912,65713.039762087,65713.0402615827,65713.0407610784,65713.0412605742,65713.0417600699,65713.0422595656,65713.0427590614,65713.0432585571,65713.0437580528,65713.0442575486,65713.0447570443,65713.04525654,65713.0457560357,65713.0462555315,65713.0467550272,65713.0472545229,65713.0477540187,65713.0482535144,65713.0487530101,65713.0492525059,65713.0497520016,65713.0502514973,65713.050750993,65713.0512504888,65713.0517499845,65713.0522494802,65713.052748976,65713.0532484717,65713.0537479674,65713.0542474632,65713.0547469589,65713.0552464546,65713.0557459503,65713.0562454461,65713.0567449418,65713.0572444375,65713.0577439333,65713.058243429,65713.0587429247,65713.0592424205,65713.0597419162,65713.0602414119,65713.0607409077,65713.0612404034,65713.0617398991,65713.0622393949,65713.0627388906,65713.0632383863,65713.0637378821,65713.0642373778,65713.0647368735,65713.0652363692,65713.065735865,65713.0662353607,65713.0667348564,65713.0672343522,65713.0677338479,65713.0682333436,65713.0687328394,65713.0692323351,65713.0697318308,65713.0702313266,65713.0707308223,65713.071230318,65713.0717298137,65713.0722293095,65713.0727288052,65713.0732283009,65713.0737277967,65713.0742272924,65713.0747267881,65713.0752262839,65713.0757257796,65713.0762252753,65713.076724771,65713.0772242668,65713.0777237625,65713.0782232582,65713.078722754,65713.0792222497,65713.0797217454,65713.0802212412,65713.0807207369,65713.0812202326,65713.0817197284,65713.0822192241,65713.0827187198,65713.0832182155,65713.0837177113,65713.084217207,65713.0847167027,65713.0852161985,65713.0857156942,65713.0862151899,65713.0867146857,65713.0872141814,65713.0877136771,65713.0882131729,65713.0887126686,65713.0892121643,65713.0897116601,65713.0902111558,65713.0907106515,65713.0912101472,65713.091709643,65713.0922091387,65713.0927086344,65713.0932081302,65713.0937076259,65713.0942071216,65713.0947066174,65713.0952061131,65713.0957056088,65713.0962051045,65713.0967046003,65713.097204096,65713.0977035917,65713.0982030875,65713.0987025832,65713.0992020789,65713.0997015747,65713.1002010704,65713.1007005661,65713.1012000619,65713.1016995576,65713.1021990533,65713.102698549,65713.1031980448,65713.1036975405,65713.1041970362,65713.104696532,65713.1051960277,65713.1056955234,65713.1061950192,65713.1066945149,65713.1071940106,65713.1076935064,65713.1081930021,65713.1086924978,65713.1091919936,65713.1096914893,65713.110190985,65713.1106904807,65713.1111899765,65713.1116894722,65713.1121889679,65713.1126884637,65713.1131879594,65713.1136874551,65713.1141869509,65713.1146864466,65713.1151859423,65713.1156854381,65713.1161849338,65713.1166844295,65713.1171839252,65713.117683421,65713.1181829167,65713.1186824124,65713.1191819082,65713.1196814039,65713.1201808996,65713.1206803954,65713.1211798911,65713.1216793868,65713.1221788825,65713.1226783783,65713.123177874,65713.1236773697,65713.1241768655,65713.1246763612,65713.1251758569,65713.1256753527,65713.1261748484,65713.1266743441,65713.1271738399,65713.1276733356,65713.1281728313,65713.128672327,65713.1291718228,65713.1296713185,65713.1301708142,65713.13067031,65713.1311698057,65713.1316693014,65713.1321687972,65713.1326682929,65713.1331677886,65713.1336672844,65713.1341667801,65713.1346662758,65713.1351657716,65713.1356652673,65713.136164763,65713.1366642588,65713.1371637545,65713.1376632502,65713.1381627459,65713.1386622417,65713.1391617374,65713.1396612331,65713.1401607289,65713.1406602246,65713.1411597203,65713.1416592161,65713.1421587118,65713.1426582075,65713.1431577032,65713.143657199,65713.1441566947,65713.1446561904,65713.1451556862,65713.1456551819,65713.1461546776,65713.1466541734,65713.1471536691,65713.1476531648,65713.1481526605,65713.1486521563,65713.149151652,65713.1496511477,65713.1501506435,65713.1506501392,65713.1511496349,65713.1516491307,65713.1521486264,65713.1526481221,65713.1531476179,65713.1536471136,65713.1541466093,65713.1546461051,65713.1551456008,65713.1556450965,65713.1561445922,65713.156644088,65713.1571435837,65713.1576430794,65713.1581425752,65713.1586420709,65713.1591415666,65713.1596410624,65713.1601405581,65713.1606400538,65713.1611395496,65713.1616390453,65713.162138541,65713.1626380368,65713.1631375325,65713.1636370282,65713.1641365239,65713.1646360197,65713.1651355154,65713.1656350111,65713.1661345069,65713.1666340026,65713.1671334983,65713.1676329941,65713.1681324898,65713.1686319855,65713.1691314812,65713.169630977,65713.1701304727,65713.1706299684,65713.1711294642,65713.1716289599,65713.1721284556,65713.1726279514,65713.1731274471,65713.1736269428,65713.1741264385,65713.1746259343,65713.17512543,65713.1756249257,65713.1761244215,65713.1766239172,65713.1771234129,65713.1776229087,65713.1781224044,65713.1786219001,65713.1791213959,65713.1796208916,65713.1801203873,65713.1806198831,65713.1811193788,65713.1816188745,65713.1821183703,65713.182617866,65713.1831173617,65713.1836168574,65713.1841163532,65713.1846158489,65713.1851153446,65713.1856148404,65713.1861143361,65713.1866138318,65713.1871133276,65713.1876128233,65713.188112319,65713.1886118148,65713.1891113105,65713.1896108062,65713.1901103019,65713.1906097977,65713.1911092934,65713.1916087891,65713.1921082849,65713.1926077806,65713.1931072763,65713.1936067721,65713.1941062678,65713.1946057635,65713.1951052592,65713.195604755,65713.1961042507,65713.1966037464,65713.1971032422,65713.1976027379,65713.1981022336,65713.1986017294,65713.1991012251,65713.1996007208,65713.2001002166,65713.2005997123,65713.201099208,65713.2015987037,65713.2020981995,65713.2025976952,65713.2030971909,65713.2035966867,65713.2040961824,65713.2045956781,65713.2050951739,65713.2055946696,65713.2060941653,65713.2065936611,65713.2070931568,65713.2075926525,65713.2080921483,65713.208591644,65713.2090911397,65713.2095906354,65713.2100901312,65713.2105896269,65713.2110891226,65713.2115886184,65713.2120881141,65713.2125876098,65713.2130871056,65713.2135866013,65713.214086097,65713.2145855928,65713.2150850885,65713.2155845842,65713.2160840799,65713.2165835757,65713.2170830714,65713.2175825671,65713.2180820629,65713.2185815586,65713.2190810543,65713.2195805501,65713.2200800458,65713.2205795415,65713.2210790372,65713.221578533,65713.2220780287,65713.2225775244,65713.2230770202,65713.2235765159,65713.2240760116,65713.2245755074,65713.2250750031,65713.2255744988,65713.2260739946,65713.2265734903,65713.227072986,65713.2275724818,65713.2280719775,65713.2285714732,65713.2290709689,65713.2295704647,65713.2300699604,65713.2305694561,65713.2310689519,65713.2315684476,65713.2320679433,65713.2325674391,65713.2330669348,65713.2335664305,65713.2340659263,65713.234565422,65713.2350649177,65713.2355644135,65713.2360639092,65713.2365634049,65713.2370629006,65713.2375623964,65713.2380618921,65713.2385613878,65713.2390608836,65713.2395603793,65713.240059875,65713.2405593708,65713.2410588665,65713.2415583622,65713.2420578579,65713.2425573537,65713.2430568494,65713.2435563451,65713.2440558409,65713.2445553366,65713.2450548323,65713.2455543281,65713.2460538238,65713.2465533195,65713.2470528152,65713.247552311,65713.2480518067,65713.2485513024,65713.2490507982,65713.2495502939,65713.2500497896,65713.2505492854,65713.2510487811,65713.2515482768,65713.2520477726,65713.2525472683,65713.253046764,65713.2535462598,65713.2540457555,65713.2545452512,65713.255044747,65713.2555442427,65713.2560437384,65713.2565432341,65713.2570427299,65713.2575422256,65713.2580417213,65713.2585412171,65713.2590407128,65713.2595402085,65713.2600397043,65713.2605392,65713.2610386957,65713.2615381915,65713.2620376872,65713.2625371829,65713.2630366786,65713.2635361744,65713.2640356701,65713.2645351658,65713.2650346616,65713.2655341573,65713.266033653,65713.2665331488,65713.2670326445,65713.2675321402,65713.2680316359,65713.2685311317,65713.2690306274,65713.2695301231,65713.2700296189,65713.2705291146,65713.2710286103,65713.2715281061,65713.2720276018,65713.2725270975,65713.2730265933,65713.273526089,65713.2740255847,65713.2745250804,65713.2750245762,65713.2755240719,65713.2760235676,65713.2765230634,65713.2770225591,65713.2775220548,65713.2780215506,65713.2785210463,65713.279020542,65713.2795200378,65713.2800195335,65713.2805190292,65713.281018525,65713.2815180207,65713.2820175164,65713.2825170121,65713.2830165079,65713.2835160036,65713.2840154993,65713.2845149951,65713.2850144908,65713.2855139865,65713.2860134823,65713.286512978,65713.2870124737,65713.2875119695,65713.2880114652,65713.2885109609,65713.2890104566,65713.2895099524,65713.2900094481,65713.2905089438,65713.2910084396,65713.2915079353,65713.292007431,65713.2925069268,65713.2930064225,65713.2935059182,65713.2940054139,65713.2945049097,65713.2950044054,65713.2955039011,65713.2960033969,65713.2965028926,65713.2970023883,65713.2975018841,65713.2980013798,65713.2985008755,65713.2990003713,65713.299499867,65713.2999993627,65713.3004988585,65713.3009983542,65713.3014978499,65713.3019973456,65713.3024968414,65713.3029963371,65713.3034958328,65713.3039953286,65713.3044948243,65713.30499432,65713.3054938158,65713.3059933115,65713.3064928072,65713.306992303,65713.3074917987,65713.3079912944,65713.3084907902,65713.3089902859,65713.3094897816,65713.3099892773,65713.3104887731,65713.3109882688,65713.3114877645,65713.3119872603,65713.312486756,65713.3129862517,65713.3134857475,65713.3139852432,65713.3144847389,65713.3149842346,65713.3154837304,65713.3159832261,65713.3164827218,65713.3169822176,65713.3174817133,65713.317981209,65713.3184807048,65713.3189802005,65713.3194796962,65713.3199791919,65713.3204786877,65713.3209781834,65713.3214776791,65713.3219771749,65713.3224766706,65713.3229761663,65713.3234756621,65713.3239751578,65713.3244746535,65713.3249741493,65713.325473645,65713.3259731407,65713.3264726365,65713.3269721322,65713.3274716279,65713.3279711236,65713.3284706194,65713.3289701151,65713.3294696108,65713.3299691066,65713.3304686023,65713.330968098,65713.3314675938,65713.3319670895,65713.3324665852,65713.332966081,65713.3334655767,65713.3339650724,65713.3344645681,65713.3349640639,65713.3354635596,65713.3359630553,65713.3364625511,65713.3369620468,65713.3374615425,65713.3379610383,65713.338460534,65713.3389600297,65713.3394595255,65713.3399590212,65713.3404585169,65713.3409580126,65713.3414575084,65713.3419570041,65713.3424564998,65713.3429559956,65713.3434554913,65713.343954987,65713.3444544828,65713.3449539785,65713.3454534742,65713.34595297,65713.3464524657,65713.3469519614,65713.3474514571,65713.3479509529,65713.3484504486,65713.3489499443,65713.3494494401,65713.3499489358,65713.3504484315,65713.3509479273,65713.351447423,65713.3519469187,65713.3524464145,65713.3529459102,65713.3534454059,65713.3539449017,65713.3544443974,65713.3549438931,65713.3554433888,65713.3559428846,65713.3564423803,65713.356941876,65713.3574413718,65713.3579408675,65713.3584403632,65713.358939859,65713.3594393547,65713.3599388504,65713.3604383461,65713.3609378419,65713.3614373376,65713.3619368333,65713.3624363291,65713.3629358248,65713.3634353205,65713.3639348163,65713.364434312,65713.3649338077,65713.3654333035,65713.3659327992,65713.3664322949,65713.3669317906,65713.3674312864,65713.3679307821,65713.3684302778,65713.3689297736,65713.3694292693,65713.369928765,65713.3704282608,65713.3709277565,65713.3714272522,65713.371926748,65713.3724262437,65713.3729257394,65713.3734252352,65713.3739247309,65713.3744242266,65713.3749237223,65713.3754232181,65713.3759227138,65713.3764222095,65713.3769217053,65713.377421201,65713.3779206967,65713.3784201925,65713.3789196882,65713.3794191839,65713.3799186797,65713.3804181754,65713.3809176711,65713.3814171668,65713.3819166626,65713.3824161583,65713.382915654,65713.3834151498,65713.3839146455,65713.3844141412,65713.384913637,65713.3854131327,65713.3859126284,65713.3864121241,65713.3869116199,65713.3874111156,65713.3879106113,65713.3884101071,65713.3889096028,65713.3894090985,65713.3899085943,65713.39040809,65713.3909075857,65713.3914070815,65713.3919065772,65713.3924060729,65713.3929055686,65713.3934050644,65713.3939045601,65713.3944040558,65713.3949035516,65713.3954030473,65713.395902543,65713.3964020388,65713.3969015345,65713.3974010302,65713.397900526,65713.3984000217,65713.3988995174,65713.3993990132,65713.3998985089,65713.4003980046,65713.4008975003,65713.4013969961,65713.4018964918,65713.4023959875,65713.4028954833,65713.403394979,65713.4038944747,65713.4043939705,65713.4048934662,65713.4053929619,65713.4058924577,65713.4063919534,65713.4068914491,65713.4073909448,65713.4078904406,65713.4083899363,65713.408889432,65713.4093889278,65713.4098884235,65713.4103879192,65713.410887415,65713.4113869107,65713.4118864064,65713.4123859021,65713.4128853979,65713.4133848936,65713.4138843893,65713.4143838851,65713.4148833808,65713.4153828765,65713.4158823723,65713.416381868,65713.4168813637,65713.4173808595,65713.4178803552,65713.4183798509,65713.4188793467,65713.4193788424,65713.4198783381,65713.4203778338,65713.4208773296,65713.4213768253,65713.421876321,65713.4223758168,65713.4228753125,65713.4233748082,65713.423874304,65713.4243737997,65713.4248732954,65713.4253727912,65713.4258722869,65713.4263717826,65713.4268712784,65713.4273707741,65713.4278702698,65713.4283697655,65713.4288692613,65713.429368757,65713.4298682527,65713.4303677485,65713.4308672442,65713.4313667399,65713.4318662357,65713.4323657314,65713.4328652271,65713.4333647228,65713.4338642186,65713.4343637143,65713.43486321,65713.4353627058,65713.4358622015,65713.4363616972,65713.436861193,65713.4373606887,65713.4378601844,65713.4383596801,65713.4388591759,65713.4393586716,65713.4398581673,65713.4403576631,65713.4408571588,65713.4413566545,65713.4418561503,65713.442355646,65713.4428551417,65713.4433546375,65713.4438541332,65713.4443536289,65713.4448531247,65713.4453526204,65713.4458521161,65713.4463516118,65713.4468511076,65713.4473506033,65713.447850099,65713.4483495948,65713.4488490905,65713.4493485862,65713.449848082,65713.4503475777,65713.4508470734,65713.4513465692,65713.4518460649,65713.4523455606,65713.4528450564,65713.4533445521,65713.4538440478,65713.4543435435,65713.4548430393,65713.455342535,65713.4558420307,65713.4563415265,65713.4568410222,65713.4573405179,65713.4578400137,65713.4583395094,65713.4588390051,65713.4593385008,65713.4598379966,65713.4603374923,65713.460836988,65713.4613364838,65713.4618359795,65713.4623354752,65713.462834971,65713.4633344667,65713.4638339624,65713.4643334582,65713.4648329539,65713.4653324496,65713.4658319453,65713.4663314411,65713.4668309368,65713.4673304325,65713.4678299283,65713.468329424,65713.4688289197,65713.4693284155,65713.4698279112,65713.4703274069,65713.4708269027,65713.4713263984,65713.4718258941,65713.4723253899,65713.4728248856,65713.4733243813,65713.473823877,65713.4743233728,65713.4748228685,65713.4753223642,65713.47582186,65713.4763213557,65713.4768208514,65713.4773203472,65713.4778198429,65713.4783193386,65713.4788188344,65713.4793183301,65713.4798178258,65713.4803173215,65713.4808168173,65713.481316313,65713.4818158087,65713.4823153045,65713.4828148002,65713.4833142959,65713.4838137917,65713.4843132874,65713.4848127831,65713.4853122788,65713.4858117746,65713.4863112703,65713.486810766,65713.4873102618,65713.4878097575,65713.4883092532,65713.488808749,65713.4893082447,65713.4898077404,65713.4903072362,65713.4908067319,65713.4913062276,65713.4918057234,65713.4923052191,65713.4928047148,65713.4933042105,65713.4938037063,65713.494303202,65713.4948026977,65713.4953021935,65713.4958016892,65713.4963011849,65713.4968006807,65713.4973001764,65713.4977996721,65713.4982991679,65713.4987986636,65713.4992981593,65713.4997976551,65713.5002971508,65713.5007966465,65713.5012961422,65713.501795638,65713.5022951337,65713.5027946294,65713.5032941252,65713.5037936209,65713.5042931166,65713.5047926124,65713.5052921081,65713.5057916038,65713.5062910995,65713.5067905953,65713.507290091,65713.5077895867,65713.5082890825,65713.5087885782,65713.5092880739,65713.5097875697,65713.5102870654,65713.5107865611,65713.5112860568,65713.5117855526,65713.5122850483,65713.512784544,65713.5132840398,65713.5137835355,65713.5142830312,65713.514782527,65713.5152820227,65713.5157815184,65713.5162810142,65713.5167805099,65713.5172800056,65713.5177795014,65713.5182789971,65713.5187784928,65713.5192779885,65713.5197774843,65713.52027698,65713.5207764757,65713.5212759715,65713.5217754672,65713.5222749629,65713.5227744587,65713.5232739544,65713.5237734501,65713.5242729459,65713.5247724416,65713.5252719373,65713.5257714331,65713.5262709288,65713.5267704245,65713.5272699202,65713.527769416,65713.5282689117,65713.5287684074,65713.5292679032,65713.5297673989,65713.5302668946,65713.5307663904,65713.5312658861,65713.5317653818,65713.5322648775,65713.5327643733,65713.533263869,65713.5337633647,65713.5342628605,65713.5347623562,65713.5352618519,65713.5357613477,65713.5362608434,65713.5367603391,65713.5372598349,65713.5377593306,65713.5382588263,65713.538758322,65713.5392578178,65713.5397573135,65713.5402568092,65713.540756305,65713.5412558007,65713.5417552964,65713.5422547922,65713.5427542879,65713.5432537836,65713.5437532794,65713.5442527751,65713.5447522708,65713.5452517666,65713.5457512623,65713.546250758,65713.5467502537,65713.5472497495,65713.5477492452,65713.5482487409,65713.5487482367,65713.5492477324,65713.5497472281,65713.5502467239,65713.5507462196,65713.5512457153,65713.5517452111,65713.5522447068,65713.5527442025,65713.5532436982,65713.553743194,65713.5542426897,65713.5547421854,65713.5552416812,65713.5557411769,65713.5562406726,65713.5567401684,65713.5572396641,65713.5577391598,65713.5582386555,65713.5587381513,65713.559237647,65713.5597371427,65713.5602366385,65713.5607361342,65713.5612356299,65713.5617351257,65713.5622346214,65713.5627341171,65713.5632336129,65713.5637331086,65713.5642326043,65713.5647321,65713.5652315958,65713.5657310915,65713.5662305872,65713.566730083,65713.5672295787,65713.5677290744,65713.5682285702,65713.5687280659,65713.5692275616,65713.5697270574,65713.5702265531,65713.5707260488,65713.5712255446,65713.5717250403,65713.572224536,65713.5727240318,65713.5732235275,65713.5737230232,65713.5742225189,65713.5747220147,65713.5752215104,65713.5757210061,65713.5762205019,65713.5767199976,65713.5772194933,65713.5777189891,65713.5782184848,65713.5787179805,65713.5792174762,65713.579716972,65713.5802164677,65713.5807159634,65713.5812154592,65713.5817149549,65713.5822144506,65713.5827139464,65713.5832134421,65713.5837129378,65713.5842124335,65713.5847119293,65713.585211425,65713.5857109207,65713.5862104165,65713.5867099122,65713.5872094079,65713.5877089037,65713.5882083994,65713.5887078951,65713.5892073909,65713.5897068866,65713.5902063823,65713.5907058781,65713.5912053738,65713.5917048695,65713.5922043652,65713.592703861,65713.5932033567,65713.5937028524,65713.5942023482,65713.5947018439,65713.5952013396,65713.5957008354,65713.5962003311,65713.5966998268,65713.5971993226,65713.5976988183,65713.598198314,65713.5986978097,65713.5991973055,65713.5996968012,65713.6001962969,65713.6006957927,65713.6011952884,65713.6016947841,65713.6021942799,65713.6026937756,65713.6031932713,65713.6036927671,65713.6041922628,65713.6046917585,65713.6051912542,65713.60569075,65713.6061902457,65713.6066897414,65713.6071892372,65713.6076887329,65713.6081882286,65713.6086877244,65713.6091872201,65713.6096867158,65713.6101862116,65713.6106857073,65713.611185203,65713.6116846987,65713.6121841945,65713.6126836902,65713.6131831859,65713.6136826817,65713.6141821774,65713.6146816731,65713.6151811689,65713.6156806646,65713.6161801603,65713.6166796561,65713.6171791518,65713.6176786475,65713.6181781433,65713.618677639,65713.6191771347,65713.6196766304,65713.6201761262,65713.6206756219,65713.6211751176,65713.6216746134,65713.6221741091,65713.6226736048,65713.6231731006,65713.6236725963,65713.624172092,65713.6246715877,65713.6251710835,65713.6256705792,65713.6261700749,65713.6266695707,65713.6271690664,65713.6276685621,65713.6281680579,65713.6286675536,65713.6291670493,65713.629666545,65713.6301660408,65713.6306655365,65713.6311650322,65713.631664528,65713.6321640237,65713.6326635194,65713.6331630152,65713.6336625109,65713.6341620066,65713.6346615024,65713.6351609981,65713.6356604938,65713.6361599896,65713.6366594853,65713.637158981,65713.6376584767,65713.6381579725,65713.6386574682,65713.6391569639,65713.6396564597,65713.6401559554,65713.6406554511,65713.6411549469,65713.6416544426,65713.6421539383,65713.6426534341,65713.6431529298,65713.6436524255,65713.6441519213,65713.644651417,65713.6451509127,65713.6456504084,65713.6461499042,65713.6466493999,65713.6471488956,65713.6476483914,65713.6481478871,65713.6486473828,65713.6491468786,65713.6496463743,65713.65014587,65713.6506453657,65713.6511448615,65713.6516443572,65713.6521438529,65713.6526433487,65713.6531428444,65713.6536423401,65713.6541418359,65713.6546413316,65713.6551408273,65713.6556403231,65713.6561398188,65713.6566393145,65713.6571388102,65713.657638306,65713.6581378017,65713.6586372974,65713.6591367932,65713.6596362889,65713.6601357846,65713.6606352804,65713.6611347761,65713.6616342718,65713.6621337676,65713.6626332633,65713.663132759,65713.6636322548,65713.6641317505,65713.6646312462,65713.6651307419,65713.6656302377,65713.6661297334,65713.6666292291,65713.6671287249,65713.6676282206,65713.6681277163,65713.6686272121,65713.6691267078,65713.6696262035,65713.6701256993,65713.670625195,65713.6711246907,65713.6716241864,65713.6721236822,65713.6726231779,65713.6731226736,65713.6736221694,65713.6741216651,65713.6746211608,65713.6751206566,65713.6756201523,65713.676119648,